Wavelength	1mm_blackPA00000.asd
350	-1.53487371393899 
351	-1.08726465070972 
352	-0.658989736958436 
353	 1.63460409289602 
354	 9.02657351427699E-02 
355	-2.03975710807671 
356	-1.51761843187095 
357	 0.701267969155289 
358	 0.425104467599698 
359	-1.59537622553298 
360	-0.496340647320663 
361	 0.31735612286037 
362	 0.173078971644352 
363	-0.648662940344508 
364	-0.471664521540887 
365	-1.12587505292609 
366	-2.02783339339232 
367	 0.755144583340927 
368	-0.088501897274431 
369	-2.04259093159149 
370	-0.374041395029291 
371	 0.676782249757337 
372	 0.666936890056265 
373	 6.98913175305338E-03 
374	 0.191116044500722 
375	-5.79971119667058E-02 
376	-0.37560832761579 
377	 0.20848255436012 
378	-2.72275840219116E-02 
379	-0.784592455451869 
380	-1.48739867896012 
381	-1.79813851025637 
382	-1.56379929531868 
383	-0.72216718775941 
384	 0.656758545729226 
385	-0.35031033516851 
386	-1.70677167388405 
387	-1.03551891980841 
388	-1.15926445966826 
389	-0.780092516658586 
390	 0.369076806173671 
391	 0.771350941587581 
392	 0.591194783377935 
393	-0.274363793178701 
394	-1.71467960518546 
395	-1.48325597651428 
396	-1.02749862300664 
397	-1.33016382642024 
398	-0.804293739964873 
399	-1.31077669476506 
400	-1.95549908222795 
401	 0.168611166816856 
402	 0.911605289195601 
403	 0.673524307799421 
404	 0.729896304666698 
405	 1.04635596636954 
406	 0.728167252435772 
407	-0.49673285182908 
408	-2.18234685981097 
409	-1.03633706610225 
410	 0.953446242153408 
411	-6.92965993420288E-02 
412	-0.336145282231342 
413	-4.83186275822932E-02 
414	 2.98252730534181E-02 
415	-1.12031323321951 
416	-1.13435848571538 
417	-0.263168527051846 
418	-1.06840742862199 
419	-1.66179613466507 
420	-1.27267477732183 
421	 0.126602679831561 
422	 0.180189008188832 
423	 0.209139364480031 
424	 0.619230461256001 
425	-0.577065009739632 
426	-0.841648318378408 
427	-0.347472514830431 
428	-0.637984111855386 
429	-0.92019071561613 
430	-0.571174160734738 
431	 0.435161311716427 
432	-4.76785599926743E-02 
433	 7.93596733505907E-02 
434	 0.712717475842028 
435	-1.3250503458356 
436	-1.90360426291956 
437	-1.09422779472302 
438	-0.55330728524477 
439	-0.74219782867877 
440	-0.584837092783324 
441	 0.464135606448328 
442	 1.13209518013174 
443	 0.586431460356873 
444	-0.642196091245581 
445	-0.718432281090464 
446	-0.515063962310956 
447	-0.239903033360345 
448	-0.128301762265224 
449	-1.76219580530326 
450	-1.89360260612511 
451	 0.398919418415532 
452	 0.346352838879787 
453	 0.179516635645227 
454	-1.02057802310689E-02 
455	-1.29883783305322 
456	-1.241828155306 
457	-1.01364793986931 
458	-1.93060210304051 
459	-1.48574865979633 
460	-0.90642801794986 
461	-0.960099820119814 
462	-1.51329980979956 
463	-0.974272622652444 
464	-3.25422855233071E-02 
465	-0.623669144090288 
466	-2.14228235673834 
467	-2.43410571393384 
468	-0.430934628962429 
469	-0.741109349255289 
470	-0.707266092522098 
471	 0.291401952411319 
472	-0.680735854040148 
473	-0.606611075040969 
474	 0.259939370561887 
475	 0.226044321075744 
476	-0.413110135523604 
477	-1.37267918520466 
478	-2.13938679653419 
479	-1.3070894891838 
480	-1.28126134276951 
481	-2.18799750568088 
482	-0.786010359368884 
483	-0.866596053242145 
484	-1.98003381372927 
485	-2.00359595789205 
486	-1.93859023547488 
487	-1.38217909297142 
488	-0.334679811908521 
489	-0.714217854252127 
490	-2.15983728879486 
491	-3.59624224529724 
492	-2.88000021157312 
493	-1.91856863916593 
494	-1.13522340810487 
495	-0.451672695652068 
496	-0.209263009008322 
497	-1.34459604714012 
498	-3.62259697649993 
499	-2.59492626207792 
500	-1.94401089421291 
501	-2.28105733482281 
502	-7.29760118051815E-02 
503	 0.401065671707628 
504	-0.471864179396475 
505	-0.579659652390844 
506	-1.70288102087273 
507	-2.7816089467671 
508	-2.65387100037552 
509	-0.905926427858406 
510	-0.21053913640714 
511	-1.20190055358849 
512	-1.9085630640085 
513	-2.19403697578299 
514	-2.20899813955681 
515	-2.31819955335869 
516	-2.31113631471893 
517	-2.00801950109343 
518	-1.48711827082646 
519	-1.73045919488291 
520	-2.21121688169765 
521	-2.45973702243919 
522	-2.03896010698319 
523	-1.42316033378872 
524	-1.13957861195647 
525	-1.68913005208469 
526	-2.04311530427434 
527	-2.54884933161667 
528	-3.37358371130459 
529	-2.99120236388703 
530	-1.74132285907318 
531	-0.565832260451295 
532	-1.63749171301632 
533	-1.80539242127465 
534	-1.26415162763834 
535	-1.85014813195674 
536	-2.49375928413552 
537	-2.79117553468781 
538	-2.75762200082898 
539	-4.06027505460166 
540	-3.39021124857698 
541	-0.41134412539727 
542	-0.57144772711046 
543	-1.44687527736118 
544	-2.37810863083474 
545	-3.37720211227481 
546	-2.31627660747253 
547	-0.837692955144364 
548	-1.15037441304242 
549	-3.37142454232887 
550	-3.87114592972867 
551	-1.70253741107678 
552	-1.90088960981631 
553	-2.32164904986135 
554	-2.28369888795741 
555	-1.92275362626619 
556	-2.28378738428839 
557	-2.30370081572057 
558	-1.00785576697969 
559	-2.45959487123311 
560	-3.68707217947466 
561	-2.75722637212547 
562	-1.49567773651842 
563	-1.64800505704419 
564	-2.80505325224759 
565	-2.38534485010141 
566	-2.97563294042457 
567	-3.36452271177324 
568	-1.68107617112183 
569	-1.83881289194448 
570	-2.82665697325161 
571	-3.23569568483342 
572	-2.21314396694299 
573	-1.90682472519664 
574	-2.46833188232339 
575	-1.60472804282257 
576	-1.3068991342074 
577	-1.439566222037 
578	-1.18911845571471 
579	-2.33566903883677 
580	-3.0098549409157 
581	-1.97895483906511 
582	-2.75817950584413 
583	-2.24517953383734 
584	-3.34175902129341E-02 
585	 0.110253030157669 
586	-2.07006578635124 
587	-4.33308052018488 
588	-2.98137633793565 
589	-1.49784403777725 
590	-0.671210000889357 
591	-0.699059129516918 
592	-1.93257247184483 
593	-2.42402707893445 
594	-1.88242796941536 
595	-3.63328422148814 
596	-4.31519725582384 
597	-3.34765529886356 
598	-1.9220085855758 
599	-2.33451035710504 
600	-2.90318526103503 
601	-1.63816059492916 
602	-2.52087339872357 
603	-2.95395339926441 
604	-1.68915384637756 
605	-2.01647500007613 
606	-2.29034663321863 
607	-1.90485058408632 
608	-0.992484592270973 
609	-1.94976055683698 
610	-3.37623085393453 
611	-2.85040581328607 
612	-1.95901237300535 
613	-1.39250906544404 
614	-1.64156300332712 
615	-3.35925205926664 
616	-3.38512899997584 
617	-1.65961580300886 
618	-1.97663051477924 
619	-2.57579108551725 
620	-2.50666297408973 
621	-1.28311395510212 
622	-2.45394336432353 
623	-3.63983550837082 
624	-2.64998362388223 
625	-2.01595285589996 
626	-2.11945734354409 
627	-2.75505004320699 
628	-2.87861935542274 
629	-2.76053836044939 
630	-2.21562519442975 
631	-0.954418551791196 
632	-0.815093947163983 
633	-1.49278940448666 
634	-2.23351170790717 
635	-3.03562799973174 
636	-2.94034247861678 
637	-2.05781149959 
638	-2.9404041367283 
639	-3.05186850022265 
640	-2.23596345823321 
641	-1.97928894860628 
642	-2.32149594965677 
643	-1.93238778061961 
644	 0.123432998805711 
645	-1.04898659029302 
646	-2.1949567171469 
647	-1.36346033936073 
648	-1.85344106999693 
649	-2.1858124882502 
650	-2.07934034027874 
651	-2.32978690005194 
652	-1.90208191771913 
653	-1.81237866728586 
654	-3.41800595884113 
655	-4.03855510814006 
656	-3.67358630563875 
657	-2.89370838730239 
658	-2.7303920733428 
659	-2.84042072410043 
660	-2.98044319722168 
661	-3.07275261086227 
662	-2.103882600903 
663	-1.20207005905486 
664	-2.23182181868519 
665	-2.01520673262216 
666	-1.50564071395399 
667	-1.87482033436588 
668	-2.24444511915872 
669	-2.03786471961355 
670	-1.56395448960626 
671	-2.85601423155791 
672	-2.68791083066501 
673	-1.78301576225711 
674	-2.8427097814709 
675	-2.13060418489225 
676	-1.38617690912554 
677	-2.59272426960525 
678	-2.96328995446105 
679	-2.68404759197431 
680	-2.27183316231428 
681	-2.75433897929572 
682	-2.28330324034014 
683	-1.23006816345422 
684	-1.46177061318585 
685	-1.69841365625148 
686	-1.97574309433188 
687	-2.51801464899726 
688	-2.7971199335803 
689	-2.58492223949765 
690	-2.27194293188379 
691	-4.01120632555338 
692	-3.72938445946774 
693	-1.69088732120686 
694	-1.78009032260948 
695	-2.49526759944778 
696	-3.02159606315763 
697	-2.92136592483898 
698	-4.13030051657509 
699	-4.27830732970669 
700	-2.34331771071184 
701	-1.81230455790132 
702	-1.88825307932896 
703	-2.50208261164696 
704	-4.31120092393009 
705	-3.28376866693109 
706	-1.46428006554545 
707	-2.53859925674953 
708	-3.27759287495495 
709	-2.80656213449898 
710	-1.40774770419815 
711	-1.80898674963498 
712	-2.61090509280149 
713	-3.11902447807317 
714	-3.42850709468173 
715	-1.43700801210133 
716	-4.45647790583013E-02 
717	-3.24837091530028 
718	-3.58405463299316 
719	-1.98221070504595 
720	-0.479486308056708 
721	-0.217487721381888 
722	-1.52099407440648 
723	-3.51776912036027 
724	-3.6893587670277 
725	-3.95339003790588 
726	-3.88484001604158 
727	-2.40907391373017 
728	-1.87596965831815 
729	-1.61333244618466 
730	-1.05939741782089 
731	-1.98844716943127 
732	-2.02558495262891 
733	-1.16847333252834 
734	-2.80635893674733 
735	-3.33701947381855 
736	-2.43870768697478 
737	-1.30589495363163 
738	-2.04516493988782 
739	-3.05714902936013 
740	-2.8122648497154 
741	-2.30633176559014 
742	-1.8446613156096 
743	-1.70141692671936 
744	-2.18546159318556 
745	-2.73643898956374 
746	-3.37514668496497 
747	-4.213706749142 
748	-3.32596524167168 
749	-2.56515955019956 
750	-3.09641349313792 
751	-1.19004346739279 
752	-1.3350087689885 
753	-3.86663573100895 
754	-3.60197057398417 
755	-2.98925320347603 
756	-2.55925438819261 
757	-2.28048748036126 
758	-2.58770201367841 
759	-2.82905240213922 
760	-2.56983434610899 
761	-2.64067610172287 
762	-2.34486334316845 
763	-1.96457972797152 
764	-3.04268703593641 
765	-3.9742860486695 
766	-3.77908443099625 
767	-2.15615151034683 
768	-3.10239008826426 
769	-4.3939215832901 
770	-4.11246528773231 
771	-3.64959974393324 
772	-3.20465447227107 
773	-2.92180426033291 
774	-2.88894226690132 
775	-2.73593540538389 
776	-2.38718008991488 
777	-1.93052719606902 
778	-1.7201808258634 
779	-2.05383370148653 
780	-2.83413933735851 
781	-3.04391323529608 
782	-3.21105317627305 
783	-3.15441903286393 
784	-2.13567125822465 
785	-2.68189741918072 
786	-3.33778465217244 
787	-2.22670664881014 
788	-2.21706182658364 
789	-2.71947837358043 
790	-2.98520440019215 
791	-2.21188555560777 
792	-2.93354745873565 
793	-3.88880635150561 
794	-1.58216582066587 
795	-1.81257473606251 
796	-2.78201807839143 
797	-2.01022414459496 
798	-1.81282847772144 
799	-2.38097162777672 
800	-3.39977223429494 
801	-4.03618864030574 
802	-2.61669248752995 
803	-0.997117297287821 
804	-2.35711191093942 
805	-2.23911380731168 
806	-2.10816944792774 
807	-3.19260198153665 
808	-2.91643650859347 
809	-2.11633044861962 
810	-1.64480615560451 
811	-2.46471644674365 
812	-2.30127272017609 
813	-1.91465299186681 
814	-2.64203887886104 
815	-1.99147364658206 
816	-1.79276445702043 
817	-2.79339687472261 
818	-2.4137638626878 
819	-1.83218435880473 
820	-1.63943896793593 
821	-2.12653133027028 
822	-3.18672293984992 
823	-3.42291793228696 
824	-2.112875116314 
825	-2.6875444577118 
826	-2.73944715598636 
827	-1.7078759872561 
828	-1.96336433094067 
829	-2.59118020637144 
830	-3.23538901968471 
831	-3.69288690912053 
832	-4.10119291777216 
833	-3.62335388193095 
834	-2.44516698933861 
835	-4.04676529064032 
836	-4.16644429449199 
837	-2.59165518890943 
838	-2.31867716244065 
839	-3.0024504757342 
840	-3.10347822233224 
841	-1.51932168833015 
842	-0.728748296077725 
843	-1.81979701895384 
844	-4.10895378956767 
845	-4.3402830320297 
846	-3.35259262570349 
847	-2.16865839457322 
848	-1.97426911720248 
849	-2.70433285322731 
850	-3.36279589168901 
851	-3.30530096636766 
852	-3.01603754379445 
853	-2.78660273604401 
854	-2.75334360868138 
855	-2.89567817897425 
856	-2.40874066348571 
857	-2.13648894725505 
858	-2.82667023437364 
859	-3.3919453770663 
860	-2.78868110943146 
861	-1.53037608846339 
862	-2.14922124383907 
863	-2.94288401990522 
864	-3.14860848976998 
865	-2.55063456986202 
866	-2.8428478086821 
867	-2.50641638567409 
868	-1.25310259472274 
869	-1.89528635707242 
870	-2.86571723108465 
871	-3.12969854158498 
872	-2.09542798633963 
873	-3.05731162268715 
874	-3.91121478981353 
875	-2.90243782545776 
876	-1.44484678349548 
877	-1.98979184307633 
878	-3.46831155374327 
879	-2.03409250453817 
880	-2.73704815102377 
881	-3.42743994573304 
882	-1.85968106581375 
883	-2.33766593248667 
884	-2.5278639417946 
885	-2.1100340857079 
886	-3.33713162269667 
887	-3.04147857401574 
888	-2.18178409018277 
889	-2.55360420179413 
890	-2.94253092944035 
891	-3.3912166773522 
892	-3.51388133993286 
893	-1.88070422158867 
894	-2.45555883535029 
895	-3.50122562635517 
896	-1.84211432326517 
897	-2.31995784856207 
898	-3.39104104389983 
899	-3.3833239948749 
900	-1.18465584976407 
901	-0.996363012819224 
902	-2.36226757926324 
903	-2.57415064028519 
904	-1.4706519342939 
905	-1.39708848983322 
906	-2.94486876325677 
907	-1.38621056765644 
908	-1.85531724435781 
909	-3.55286415520328 
910	-2.5726477004835 
911	-2.71752105685694 
912	-2.69817053404732 
913	-1.61537872040621 
914	-1.69807155700291 
915	-3.02339740555663 
916	-4.0391536646789 
917	-2.31382492083309 
918	-1.76345833423071 
919	-2.33897457821963 
920	-3.1048828948533 
921	-2.91254395137422 
922	-1.8297407346667 
923	-0.664059447408427 
924	-0.75567815483473 
925	-2.08659821738342 
926	-2.30676737242875 
927	-0.490746336651911 
928	-1.25837790045208 
929	-3.02749086640912 
930	-3.99363500483297 
931	-2.39790085057714 
932	-2.20093971346369 
933	-2.1419340755397 
934	-1.19340230139907 
935	-2.39049813742794 
936	-2.39074220899584 
937	-0.919043617319383 
938	-2.39456531378598E-02 
939	-1.70538019640963 
940	-3.61780674464172 
941	-3.82776062598824 
942	-4.11460181115348 
943	-2.02283119883993 
944	 0.355590130440827 
945	-1.43953525468216 
946	-1.35143191339499 
947	-0.351708192391645 
948	-0.156261522784167 
949	-1.70536868207002 
950	-2.12971036449525 
951	-1.59425923764411 
952	-1.90173554691479 
953	-3.05690878682088 
954	-3.26886767730422 
955	-2.04002766364809 
956	-2.0498688206121 
957	-2.12060409322193 
958	-2.40473954654366 
959	-3.25272910110156 
960	-2.62742766190388 
961	-2.2578735057948 
962	-2.85814187046519 
963	-2.9477717528397 
964	-2.5608629151588 
965	-2.78162935050106 
966	-4.51284234566073 
967	-4.01327952377302 
968	-2.37578874546922 
969	-2.20440796374786 
970	-3.78300033816842 
971	-4.57215189100208 
972	-6.53516649338587 
973	-5.58119734107472 
974	-1.02839473199216 
975	 0.311821748895575 
976	 2.69862505543842 
977	 1.60529294220442 
978	 1.94232286869287 
979	-2.50360317057572 
980	-7.36610458068635 
981	-4.89499003854626 
982	-1.31266688292116 
983	 1.18352171436856 
984	 3.56283082203253 
985	 7.05283961883355 
986	 7.83168693673685 
987	 3.28292319050303 
988	 1.14016812671517 
989	 0.454615046917166 
990	-1.07355020324893 
991	-4.84021499865903 
992	-5.81180281712995 
993	-4.32917188471461 
994	-4.76052583129675 
995	-5.37265351680635 
996	-4.2321620677338 
997	-4.20316767779933 
998	-4.87816910699752 
999	-6.39965623127545 
1000	-8.25066988134893 
1001	-8.83330765313039 
1002	-8.88928063454703 
1003	-6.39046921044095 
1004	-1.74171653775994 
1005	 0.361627070678986 
1006	 2.58534084917101 
1007	 2.58828772805842 
1008	 0.360288707634075 
1009	-3.34709804960151 
1010	-5.54854631724624 
1011	-5.90070733127879 
1012	-4.8723729971901 
1013	-1.55630047640568 
1014	-0.274236244180153 
1015	 0.440192562568188 
1016	 3.38090026874657 
1017	 5.69859616944389 
1018	 6.54952863922357 
1019	 4.19767904936297 
1020	-8.20738033403546E-02 
1021	-4.31450066795231 
1022	-7.403661049517 
1023	-8.47915340354992 
1024	-5.81781507707435 
1025	-3.51296383720934 
1026	-3.91810830049767 
1027	-4.20388766600784 
1028	-3.62154187839144 
1029	-4.67038691318532 
1030	-6.64841359988297 
1031	-6.19975394925083 
1032	-5.37374778091758 
1033	-5.97417178566671 
1034	-4.48389766867561 
1035	-3.64495240646357 
1036	-2.36945850352763 
1037	 1.64112909868422 
1038	 1.65971093989977 
1039	 1.7551571672239 
1040	 0.87448536413434 
1041	-5.31218950785489 
1042	-7.05393628020965 
1043	-5.84688034170147 
1044	-6.71712804435142 
1045	-6.1038690243526 
1046	-3.05277177872293 
1047	-3.25876260979077 
1048	-2.65795190378186 
1049	-0.491971024205532 
1050	-2.13885840052407 
1051	-6.59399288832165 
1052	-6.29551740274254 
1053	-6.50191870255506 
1054	-7.88679682061225 
1055	-5.71337843276527 
1056	-6.00096507202522 
1057	-4.96687204675125 
1058	-3.51925274110803 
1059	-2.07443213095481 
1060	 1.10711494398342 
1061	 2.07490804717075 
1062	 1.5145494112654 
1063	 0.290946027548373 
1064	 0.441519898169411 
1065	 5.64785316991193E-02 
1066	 0.78351391963312 
1067	 0.380815816326109 
1068	-2.12385231307099 
1069	-2.05845705489069 
1070	-0.771181959212387 
1071	 0.669089811441991 
1072	 2.81165301781923 
1073	 5.6954491832021 
1074	 6.18244116943309 
1075	 3.76079074376298 
1076	 4.18433387054859 
1077	 4.92717539109072 
1078	 4.6201186654707 
1079	 7.95830561280143 
1080	 6.23431202178096 
1081	-1.8391759246186 
1082	-4.92217655135225 
1083	-7.90969566262215 
1084	-11.4256821365375 
1085	-9.29795143031096 
1086	-5.07021937006705 
1087	-3.96437600083875 
1088	-4.0950720827218 
1089	-2.64517873119601 
1090	-2.61391851777662 
1091	-2.81285760956198 
1092	-2.20863728855925 
1093	-2.10677676033735 
1094	-4.18636385693436 
1095	-3.91278000777294 
1096	-2.97976541593642 
1097	-1.54450579669239 
1098	 3.74939639233014 
1099	 3.95528748233579 
1100	 1.81752048226093 
1101	 0.755191584071382 
1102	-6.61920856192207 
1103	-7.99949856631343 
1104	-3.7306386775521 
1105	-1.03264150233243 
1106	 0.234213601666231 
1107	 3.36080541070332 
1108	-0.255503787980687 
1109	-3.05685549531334 
1110	-5.2395123423684 
1111	-8.10992844772671 
1112	-9.02034517368042 
1113	-8.72150461096327 
1114	-8.67475228527816 
1115	-5.96655099322757 
1116	-6.40847929713138 
1117	-10.8339399035419 
1118	-10.3934410014877 
1119	-8.07263632136773 
1120	-7.18778621471755 
1121	-3.21325862724069 
1122	-1.07482502322684 
1123	-1.42387440230949 
1124	-1.88209891749234 
1125	-2.97739899047804 
1126	-2.74469196115769 
1127	-3.18769632142291 
1128	-4.91972324740904 
1129	-5.13234807528678 
1130	-4.00694933715995 
1131	-4.01783831406536 
1132	-4.99890447487851 
1133	-4.15259100434035 
1134	-1.07376513725157 
1135	-1.68904760230977 
1136	-3.63344746861945 
1137	-4.53642027711084 
1138	-8.33757052628394 
1139	-9.55494485667831 
1140	-8.29135751402878 
1141	-7.21542472056193 
1142	-5.32065302292381 
1143	-4.24673385423919 
1144	-2.36049078232774 
1145	-1.30556488867231 
1146	-0.601074494062442 
1147	-1.25628894595372 
1148	-2.7518505160638 
1149	-5.39643491921962 
1150	-6.75758562826735 
1151	-9.67539089698098 
1152	-9.56878200154542 
1153	-7.23412326915264 
1154	-5.16822420372617 
1155	-1.8490810208008 
1156	 0.465211367599114 
1157	 4.57213765432057 
1158	 4.97877888395954 
1159	 2.38961438903827 
1160	 1.92553560638797 
1161	-0.721112500461897 
1162	-1.51335972726181 
1163	 1.57989538008815 
1164	 1.22816644352316 
1165	-1.22354045250301 
1166	-2.37869061497454 
1167	-4.19745768583662 
1168	-6.85133436544374 
1169	-4.38416167890907 
1170	-5.05954208701772 
1171	-5.99975351050533 
1172	-7.73630884182178 
1173	-7.05899270125866 
1174	-6.70225937877806 
1175	-5.57649052084367 
1176	-1.05734809339236 
1177	-0.6964001038064 
1178	-3.33299238851352 
1179	-3.93981387256817 
1180	-5.0312328360688 
1181	-5.63474642484958 
1182	-4.56066060802471 
1183	-5.23808721379891 
1184	-7.21140075892849 
1185	-8.42791539058916 
1186	-11.4307403160898 
1187	-11.8417817319794 
1188	-9.46062551516974 
1189	-9.16618618053645 
1190	-8.94536773000894 
1191	-8.10059469926959 
1192	-8.49409342929936 
1193	-5.24811054145366 
1194	-4.19338121699146 
1195	-3.74290254125553 
1196	-2.27565580742172 
1197	-2.1135579299694 
1198	-1.2799776256667 
1199	 2.75468973935064 
1200	 2.43716465413955 
1201	-1.8858406303914 
1202	-2.50189642529934 
1203	-3.45846220530153 
1204	-3.62589715207439 
1205	-0.937736351024185 
1206	-0.795215909080876 
1207	-2.29810166821609 
1208	-2.77312832736817 
1209	-3.79983325236812 
1210	-3.3005040315472 
1211	-2.31692098406746 
1212	-0.235984858263857 
1213	 2.73391563297693 
1214	 4.9197269521068 
1215	 4.49593340206524 
1216	 1.86054597558169 
1217	 1.00032694298443 
1218	-2.14298321202405 
1219	-3.90254598573026 
1220	-0.809464891541927 
1221	-0.141732746343476 
1222	 0.208230171960873 
1223	 0.473430509356061 
1224	-0.285611520649888 
1225	 4.98092279000437E-02 
1226	 2.07263566176199 
1227	 1.47290412061992 
1228	 0.379818620256278 
1229	 0.368355790075259 
1230	-1.15167348181445 
1231	-2.72822227552152 
1232	-4.13384044537299 
1233	-4.93435369320265 
1234	-6.25894733368177 
1235	-6.93553265483035 
1236	-6.29784395260384 
1237	-4.56977148789288 
1238	-5.06900392615728 
1239	-5.5103991320375 
1240	-4.52883754798197 
1241	-3.55135849409312 
1242	-2.01366897885432 
1243	-0.922960834436268 
1244	-1.86979608927895 
1245	-2.00481553953629 
1246	-1.02838740367765 
1247	-0.581385640537814 
1248	 1.09350780139031 
1249	 2.22729288610922 
1250	 1.53001918539659 
1251	-2.05483913687172 
1252	-3.67642563946819 
1253	-6.05006761806879 
1254	-5.90123361051685 
1255	-2.64542004417297 
1256	-1.63439200579918 
1257	-1.68327626604871 
1258	-1.33373056530349 
1259	-1.90511051433928 
1260	-1.52909349049156 
1261	-0.637692372085737 
1262	 3.12331587403958 
1263	 4.2997628800362 
1264	 2.60692703975178 
1265	 3.26643746412036 
1266	 3.70245529257545 
1267	 2.80332870229741 
1268	 3.55248097156295 
1269	 1.53124009487051 
1270	-2.78705423174476 
1271	-3.14916175422376 
1272	-0.89767900858133 
1273	 9.39552934296145E-02 
1274	 2.24060337287336 
1275	 3.26632876325962 
1276	 0.662741282683133 
1277	-1.83099828915659 
1278	-6.10613550261034 
1279	-6.96622021080162 
1280	-5.8657270526509 
1281	-6.1116080991096 
1282	-2.4660452592766 
1283	-2.19260488248793 
1284	-7.80332534078218 
1285	-9.88518870670144 
1286	-12.5168751835136 
1287	-11.6531033200179 
1288	-7.66739470085635 
1289	-2.83968231715006 
1290	 0.879718055893154 
1291	 1.98997032078744 
1292	-2.35918959503336 
1293	-6.31677437882808 
1294	-10.6016014035861 
1295	-12.6344528671084 
1296	-10.0154583291978 
1297	-5.81642326318377 
1298	-0.178817508172756 
1299	 5.00069450541946 
1300	 6.96074168631148 
1301	 7.63797967404299 
1302	 6.14194168138246 
1303	 0.774915571262522 
1304	-2.018711428978 
1305	-3.59395222832982 
1306	-4.88946878587303 
1307	-3.58408082214273 
1308	-4.9112907449105 
1309	-7.58082976189068 
1310	-9.19351385898321 
1311	-10.671109770779 
1312	-9.6779412182436 
1313	-5.81966112759097 
1314	-3.10673749216635 
1315	 2.64939343070068 
1316	 3.66310611147232 
1317	 0.847725956319801 
1318	-0.646336379228778 
1319	-3.91164704755762 
1320	-6.19633586358712 
1321	-7.14401207926665 
1322	-8.21405428828233 
1323	-9.03319454650502 
1324	-7.57805662764892 
1325	-5.41302563973105 
1326	-2.88125773828537 
1327	-0.642490778938843 
1328	 0.044806282316707 
1329	 1.30655370620869 
1330	 3.09547215052696 
1331	 4.12555784047927 
1332	 4.61396191745925 
1333	 3.04344187754228 
1334	 1.97259701597938 
1335	 1.03543932459498 
1336	-2.91100706565018 
1337	-5.18272629339137 
1338	-5.38400074619172 
1339	-6.45548089724195 
1340	-4.86606782685182 
1341	-1.23872319383222 
1342	 0.33133622652053 
1343	-0.726010944010355 
1344	-2.26925001754422 
1345	-3.19658157019392 
1346	-4.95967633003107 
1347	-5.41801661587114 
1348	-3.34774018951394 
1349	-3.15972048289001 
1350	-3.90626746487672 
1351	-3.55895333816651 
1352	-2.11094100140707 
1353	-1.8992482964228 
1354	-2.10767593866234 
1355	-2.29692706972204 
1356	-1.96148345352764 
1357	-3.20895551282422 
1358	-4.31191719425806 
1359	-2.35633846106942 
1360	 1.71567015652395 
1361	 4.10676053015872 
1362	 7.4040718427466 
1363	 7.92680625923434 
1364	 1.50666997852308 
1365	-3.17806268145631 
1366	-6.89625348821612 
1367	-9.16952184788479 
1368	-6.36496093440475 
1369	-5.37921354471541 
1370	-3.86295679641742 
1371	 5.54295472118543E-03 
1372	 4.81260678724488E-02 
1373	-0.534645244461912 
1374	 1.22673398457184 
1375	 0.8680387131211 
1376	-0.37972310761495 
1377	-1.0025494215372 
1378	-2.71182313231922 
1379	-5.56392989474641 
1380	-6.74139330039199 
1381	-7.37335542747411 
1382	-8.4161360369826 
1383	-5.898037104713 
1384	-4.55757252138175 
1385	-4.72880885319321 
1386	-2.05773315550494 
1387	-1.75170987871855 
1388	-3.28889797762094 
1389	-1.52879122397914 
1390	-0.726075923451125 
1391	-0.912480061797023 
1392	-0.960502528598664 
1393	-0.815848343256233 
1394	-1.71598066026356 
1395	-3.44575867618655 
1396	-4.9145086034787 
1397	-5.12801367612244 
1398	-3.3308124778404 
1399	-1.6154583045002 
1400	 5.51330437403272E-02 
1401	 0.226331453800668 
1402	-1.61894883524627 
1403	-3.13376714060168 
1404	-3.96421461825621 
1405	-7.33365693965455 
1406	-7.60226669539196 
1407	-3.78177707820505 
1408	-2.38159074129459 
1409	 0.542383179450593 
1410	 2.32162348505866 
1411	-0.26205027124026 
1412	-3.39389500091134 
1413	-5.44008089843062 
1414	-3.88099851087672 
1415	-5.12131595599765 
1416	-6.70402495320785 
1417	-2.09511113838372 
1418	-1.49894213917795 
1419	-1.24640198790604 
1420	 1.14226989751976 
1421	-2.95751248664187 
1422	-6.13008530914298 
1423	-4.56974382370832 
1424	-2.95516788216372 
1425	-0.184608001154355 
1426	 1.15119867197406 
1427	-0.582194708466471 
1428	-3.72031167138887 
1429	-7.3860204525494 
1430	-7.29755391638423 
1431	-5.65461215492612 
1432	-3.33703415586576 
1433	-1.21915929337749 
1434	-2.93350102461836 
1435	-5.11762174723362 
1436	-7.10426480485455 
1437	-7.43584092126137 
1438	-5.7102519579976 
1439	-3.342850850827 
1440	-2.42474713431651 
1441	-3.02887675956749 
1442	-1.80671254761393 
1443	-2.14826760800024 
1444	-3.67343308689026 
1445	-4.17623831447923 
1446	-4.96434775430666 
1447	-5.38559130904864 
1448	-4.38198355689293 
1449	-3.38176299987957 
1450	-2.12744086988249 
1451	-1.67734383362661 
1452	-1.16617140665407 
1453	-1.49842772664728 
1454	-4.65579422565784 
1455	-6.60441693689546 
1456	-6.19669646978598 
1457	-8.75674568541964 
1458	-9.47779650137797 
1459	-7.05671470352984 
1460	-9.00290492488731 
1461	-10.3507365879012 
1462	-6.81608145652867 
1463	-4.70964545677773 
1464	-5.24744543686576 
1465	-3.64353229373119 
1466	-3.95132749010623 
1467	-8.05888641202186 
1468	-6.13541136498942 
1469	-3.50138855258621 
1470	-3.55552098708027 
1471	 0.97045721038779 
1472	 3.68409040818057 
1473	 3.98549253460833 
1474	 4.92458468437048 
1475	 3.73408932983021 
1476	 3.2822689286948 
1477	 3.8033864617264 
1478	 4.42178748224975 
1479	 5.07201828411717 
1480	 3.143412507089 
1481	 0.226180066302924 
1482	-0.641560114508612 
1483	-1.45063308761707 
1484	-2.90104659485324 
1485	-2.65320238863596 
1486	-3.17625538022047 
1487	-4.91969987068761 
1488	-3.51441910955942 
1489	-6.06427695764669E-02 
1490	 2.14412841611011 
1491	 3.8053842612822 
1492	 3.08518784705887 
1493	 0.914299273152854 
1494	-0.741254526718755 
1495	-1.20638454008609 
1496	 1.03315442909269 
1497	 2.53383391011638 
1498	 5.15977959855903 
1499	 7.4543457294186 
1500	 6.46349566310323 
1501	 6.66156293717367 
1502	 5.96627968072209 
1503	 2.39753899968777 
1504	-0.894606110081539 
1505	-3.28113689247763 
1506	-4.3986668765771 
1507	-2.86170052479223 
1508	-0.122655175010913 
1509	 1.48408099826324 
1510	 3.45195615735707 
1511	 5.36599840437109 
1512	 5.07734754057947 
1513	 4.12914114251167 
1514	 2.19309403872844 
1515	-0.448038412748618 
1516	-1.34258988417155 
1517	 0.712753614261347 
1518	 3.53709111391684 
1519	 5.3232570003777 
1520	 4.92035964028778 
1521	 3.34242681415897 
1522	 0.438944396667359 
1523	-5.28278607364004 
1524	-6.67461646449368 
1525	-4.64325531413775 
1526	-1.62723731470367 
1527	 2.27494712782865 
1528	 4.0038456808224 
1529	 3.76437228241744 
1530	-0.91503018741185 
1531	-4.57471469016538 
1532	-4.12451879162733 
1533	-5.2379453505824 
1534	-5.94357839728941 
1535	-4.43115857836439 
1536	-4.70194306045962 
1537	-7.82126511268881 
1538	-6.35733567181221 
1539	-3.77883672975629 
1540	-4.74761449462857 
1541	-1.46305264692419 
1542	-0.580885039784792 
1543	-4.44849422024266 
1544	-5.87060270518972 
1545	-6.67713162231642 
1546	-8.05174339969873 
1547	-8.51772972964946 
1548	-6.77715773602571 
1549	-3.54129307661551 
1550	 0.396286745422251 
1551	 4.61496728062148 
1552	 5.94401675232126 
1553	 6.25161006818333 
1554	 3.58225254626484 
1555	-1.47173342435529 
1556	-3.22565978120616 
1557	-6.34114054366145 
1558	-6.82779942138805 
1559	-3.98191873246077 
1560	-2.08311346490543 
1561	 0.319415155826975 
1562	 2.0798559916321 
1563	 3.63883497889992 
1564	 3.48749898675565 
1565	 2.44624803469845 
1566	-0.403890293922405 
1567	-2.43478479900721 
1568	-2.28663794187948 
1569	-4.01349156581119 
1570	-2.94548668851781 
1571	-1.7921704480117 
1572	-2.29550906544802 
1573	-1.9307299971843 
1574	 1.43241827395819 
1575	 3.93183322590391 
1576	 2.01243987086462 
1577	 3.41235159394453 
1578	 3.7275595910591 
1579	 1.77603390415944 
1580	 1.76241790156649 
1581	 1.76362031310125 
1582	 0.288360772439214 
1583	-2.68348961322964 
1584	-3.48662012293765 
1585	-2.49163696974495 
1586	-2.7270562453536 
1587	-2.08422450368415 
1588	-0.29707723807892 
1589	 0.263889495232946 
1590	 1.13325764831825 
1591	 2.20765463996207 
1592	 3.39616586276856 
1593	 4.07172236001034 
1594	 3.44133905151711 
1595	 3.06392741349318 
1596	 2.58734193485795 
1597	 1.17408587454583 
1598	-1.02698177085758 
1599	-1.72703240285387 
1600	-0.349850168874648 
1601	-0.345345861138494 
1602	-1.03000720903098 
1603	-0.333701142369942 
1604	-2.1170438623641 
1605	-3.12142201010927 
1606	-1.49911114824963 
1607	-3.99205351393989 
1608	-9.07356291055843 
1609	-11.8409203715161 
1610	-12.7379704597802 
1611	-10.3746806472882 
1612	-5.51580697274055 
1613	-1.12945619005544 
1614	 3.19683373910024 
1615	 4.31292469167095 
1616	 4.95141403824312 
1617	 3.54170816896672 
1618	 0.125664546266925 
1619	-9.74024780630345E-02 
1620	-0.303266673283644 
1621	-0.755235658480709 
1622	-1.48725049548597 
1623	-3.72129155190805 
1624	-5.85029220695279 
1625	-4.04238746337706 
1626	-1.05944689221824 
1627	-0.172176034303775 
1628	 1.09947580560776 
1629	 1.16079165834685 
1630	-2.12640881061897 
1631	-3.60733179999719 
1632	-3.88211258828336 
1633	-5.89077319891794 
1634	-3.27736108731867 
1635	-1.98221118701345 
1636	-0.362832473664163 
1637	 0.367340523464131 
1638	-0.715065415455065 
1639	-0.849230691992037 
1640	-0.966066579216498 
1641	-1.21537221096228 
1642	 0.550503575388064 
1643	-1.79815234695181E-02 
1644	-4.43492327017382 
1645	-4.45348782187498 
1646	-2.67815843672882 
1647	-2.36653213682935 
1648	 2.17308063186275 
1649	 2.03936372645317 
1650	-4.10299847652128 
1651	-5.83533314089905 
1652	-8.0519531673445 
1653	-8.11532228034201 
1654	-4.1386378923139 
1655	-2.36919548286569 
1656	-0.814742557496782 
1657	 0.462331403918602 
1658	 1.89014234231281 
1659	 1.62489189609065 
1660	-0.520944071352046 
1661	-0.669651903652845 
1662	-0.630402656336742 
1663	-1.21585919406441 
1664	 0.286381422092064 
1665	-0.913300645856933 
1666	-5.87095313680145 
1667	-7.00020458707067 
1668	-6.56353402071527 
1669	-8.34041903806547 
1670	-10.2328566304734 
1671	-10.3413183518725 
1672	-11.7671824413196 
1673	-10.779827450998 
1674	-5.52488537962879 
1675	-4.52604986699876 
1676	-5.73385010286139 
1677	-4.49482839357049 
1678	-3.03247982424753 
1679	-1.99680593627334 
1680	 0.199618702004987 
1681	 0.854839972123179 
1682	-0.288525706542379 
1683	-1.58456381163208 
1684	 8.45501748010704E-02 
1685	 0.270867613696533 
1686	 0.996912220962248 
1687	 2.83129646967731 
1688	 3.20987755211715 
1689	 1.83262723978605 
1690	 1.79670997014814 
1691	 1.26430872970834 
1692	 1.6788490695134 
1693	 4.72149823243995 
1694	 5.82285769735964 
1695	 7.46191902277006 
1696	 6.42617752832971 
1697	 1.03510127174751 
1698	-1.08203822125179 
1699	-3.59560844468436 
1700	-4.81097674841291 
1701	-2.66523478322823 
1702	-2.10849873028821 
1703	-3.06860175675546 
1704	-2.1468284629569 
1705	 1.32494644353949 
1706	 1.29037434594049 
1707	 0.546994663114218 
1708	-0.72251398356406 
1709	-6.16922687841323 
1710	-7.3759531143655 
1711	-5.94891228472317 
1712	-5.61655623281982 
1713	-3.74817978430261 
1714	-3.41917651599101 
1715	-3.79679401640851 
1716	-4.50282658148524 
1717	-6.25433547701491 
1718	-7.04103355164733 
1719	-8.68297427463221 
1720	-7.86279549026113 
1721	-5.03153054365763 
1722	-3.44570655713509 
1723	-0.967512441376766 
1724	 0.582243746857484 
1725	 1.87396719532057 
1726	 2.28417471142422 
1727	 0.229484280365938 
1728	 0.170277905941244 
1729	-1.17932905377628 
1730	-1.3475537399369 
1731	 1.03231702544292 
1732	-2.11066773571885 
1733	-4.52417819968446 
1734	-10.6798458597934 
1735	-11.6213470391795 
1736	-7.80656440067256 
1737	-5.83313287435648 
1738	 0.476656993297903 
1739	 2.23685452705754 
1740	-1.02093193453647 
1741	-1.56495552643571 
1742	-2.9045836374668 
1743	-3.90220784359708 
1744	-3.75573550045961 
1745	-3.56090170296614 
1746	-2.98749819947286 
1747	-3.4203015937904 
1748	-3.43317115312474 
1749	-4.38705567464682 
1750	-8.1146801048578 
1751	-7.43151610109285 
1752	-4.67110100576241 
1753	-3.02755928874385 
1754	 0.999806276333468 
1755	 0.493762519985576 
1756	 0.461233935297844 
1757	-0.896692432102317 
1758	-0.701962278266456 
1759	 2.31626813947011 
1760	 1.47885655972039 
1761	 5.43868432458 
1762	 6.96956374094896 
1763	 7.74384682502288 
1764	 1.24020810075275 
1765	-26.4023329126009 
1766	-31.163445794688 
1767	-30.7354819514092 
1768	-25.5251137291943 
1769	-7.72645264961267 
1770	 17.0711087244393 
1771	 16.0335722068699 
1772	 11.0894552817383 
1773	 11.9452263540997 
1774	-2.6364086798123 
1775	-6.56291831325262 
1776	 13.0193388925872 
1777	 16.3491750435618 
1778	 8.23564767753243 
1779	 6.22935013586611 
1780	 8.53197851725588 
1781	-11.3381985770371 
1782	-15.5897002973598 
1783	-13.3189262225052 
1784	-13.741197779672 
1785	-14.6090576018855 
1786	-4.03256924392409 
1787	-5.89640552563175 
1788	-13.7021855608327 
1789	-10.2480932670861 
1790	-18.9482542057214 
1791	-19.3338193999038 
1792	-4.16805331259292 
1793	-5.06767153382932 
1794	-3.78774650326234 
1795	-3.89037943962403 
1796	 5.41416475759431 
1797	 3.85585367391664 
1798	-1.35751123703658 
1799	 7.89708685832167 
1800	 0.942149426898234 
1801	-7.93700222453674 
1802	 1.74921217187097 
1803	-3.51233907425477 
1804	-22.8543604016816 
1805	-27.6896838013138 
1806	-29.5085124162034 
1807	-39.4877228565845 
1808	-25.5861608098118 
1809	-11.699382998596 
1810	-6.04261766900862 
1811	 2.8936556258587 
1812	 1.95580101130692 
1813	-12.9969918052066 
1814	-15.7222500348183 
1815	-18.9982154059813 
1816	-20.7948361660845 
1817	-16.0080622000134 
1818	-12.2545710564837 
1819	-15.8417638851932 
1820	-20.0319799030717 
1821	-19.5426253544069 
1822	-19.5562851612029 
1823	-16.5298892818675 
1824	-8.24408525513664 
1825	-1.31058651177954 
1826	 9.26307929817404 
1827	 16.3714048805462 
1828	 21.5544827201791 
1829	 30.2207179456944 
1830	 29.1392140763711 
1831	 19.2839164202954 
1832	 16.6471781329126 
1833	 14.9456122215696 
1834	 8.25819063055808 
1835	 2.03380127797454 
1836	-5.66282498092247 
1837	-25.4748690878557 
1838	-34.641094035947 
1839	-47.014221443233 
1840	-38.721273319568 
1841	-33.2321870446988 
1842	-19.7086257838418 
1843	-10.7202465809844 
1844	 3.39243930552271 
1845	 10.1143010177044 
1846	 16.9071660775754 
1847	 17.5001924191839 
1848	 7.7995978100251 
1849	 8.22925152675474 
1850	-4.69706544485956 
1851	-21.0613336611678 
1852	-24.5681152056401 
1853	-21.899169209333 
1854	-24.9216253784443 
1855	-17.1997253547243 
1856	-18.8310377313934 
1857	-32.5967606230166 
1858	-40.6688301283902 
1859	-34.3730514940072 
1860	-32.1093447338819 
1861	-29.9933740030014 
1862	-25.5506951931352 
1863	-22.6387426443757 
1864	-23.0144601121057 
1865	-23.4274740127108 
1866	-23.6538327872659 
1867	-22.3922169262454 
1868	-22.588071005919 
1869	-28.1606754324027 
1870	-22.2814532266258 
1871	-4.76815216057853 
1872	 10.9440493697534 
1873	 24.9179680582716 
1874	 23.3359731421687 
1875	 13.2996136821573 
1876	 8.79900111223381 
1877	 0.836377869403658 
1878	-11.0698165111933 
1879	-13.2165408667531 
1880	-12.1422028009726 
1881	-22.2729571366419 
1882	-31.3686319668845 
1883	-37.8939736132635 
1884	-44.2795609930538 
1885	-38.7039929965163 
1886	-26.0450620985435 
1887	-18.5202364721389 
1888	-7.61369541782251 
1889	 3.09259008263536 
1890	 5.5292241916428 
1891	 1.04460565991554 
1892	-7.41851444700385 
1893	-13.4821853261046 
1894	-24.1942890386182 
1895	-31.0071549876537 
1896	-17.45223201932 
1897	-10.1397134314278 
1898	 7.33114048641718 
1899	 10.6417097002506 
1900	 9.39174827311718 
1901	-3.17956507875917 
1902	-7.02483193487584 
1903	-14.9361003425148 
1904	-10.3585336231838 
1905	-1.32125335230483 
1906	-9.29244234481896 
1907	-10.8110842338101 
1908	-10.1927614786873 
1909	-10.3575573529783 
1910	-8.13333199969417 
1911	 0.952982866426754 
1912	 3.89569389678567 
1913	 6.49495328140482 
1914	 1.82833140621622 
1915	 1.06275068065621 
1916	 2.4131811188733 
1917	-6.84205108937703E-02 
1918	 3.80738220319994 
1919	 1.70087306436278 
1920	-3.86095946613248 
1921	-9.47918577331083 
1922	-21.3135394315036 
1923	-25.5342627336436 
1924	-26.8446107152079 
1925	-26.358752887205 
1926	-18.3794309628505 
1927	-15.548556783359 
1928	-9.68468473564586 
1929	-8.69590488913005 
1930	-12.9277259835206 
1931	-25.081331908969 
1932	-26.1291056774513 
1933	-31.7274263276395 
1934	-27.9868016452137 
1935	-4.38408723658156 
1936	 1.21974976778665 
1937	-0.164398884402261 
1938	-0.771938623561986 
1939	-10.9092362111286 
1940	-18.9189586353672 
1941	-18.2659446770217 
1942	-9.03671778063382 
1943	-6.58337161456102 
1944	-1.55048092143392 
1945	 0.840787379762321 
1946	-0.253513248102572 
1947	-0.555753396014058 
1948	 3.55534687519112 
1949	 0.533551049032304 
1950	-14.3315837690621 
1951	-19.2117374085878 
1952	-21.4685734872465 
1953	-24.8844511397141 
1954	-23.9628427058149 
1955	-10.2002201338944 
1956	-12.6797326584023 
1957	-24.1962604352918 
1958	-29.6706029127846 
1959	-38.3025974271289 
1960	-46.5710878838207 
1961	-60.7871442069643 
1962	-60.1420715246542 
1963	-51.3533580227111 
1964	-45.3903797646465 
1965	-29.221640479834 
1966	-6.96570748982819 
1967	-5.49817553088655 
1968	-23.5882069660761 
1969	-22.9862920026179 
1970	-24.7223068001409 
1971	-22.5965466965585 
1972	-6.20180221012187 
1973	-0.141973668249245 
1974	-0.370674619423457 
1975	 0.612797134713543 
1976	 5.02754488565143 
1977	 0.267626397967411 
1978	-14.7263891768303 
1979	-24.6876892803674 
1980	-32.6419482845515 
1981	-45.640714741149 
1982	-48.3062560184665 
1983	-38.8579571352749 
1984	-40.5208546702264 
1985	-47.3842470851588 
1986	-49.0010607467174 
1987	-61.5492474324243 
1988	-51.5045591817057 
1989	-14.0151831295206 
1990	 4.15383165142241 
1991	 34.4961471820085 
1992	 44.672898065144 
1993	 33.465492053308 
1994	 19.8008912661412 
1995	 14.3080134858303 
1996	 7.60199640736503 
1997	 5.03008523433046 
1998	 8.85170278221495 
1999	 6.75746251703101 
2000	 3.30070182653801 
2001	 0.296769336183255 
2002	-1.37602089650923 
2003	-4.21046859918176 
2004	-3.63642332212582 
2005	-13.1863168232928 
2006	-26.5558778684107 
2007	-42.0882189376241 
2008	-50.4500493343456 
2009	-61.0506398442445 
2010	-59.8715254867093 
2011	-46.2796112805723 
2012	-37.9159568664799 
2013	-24.9702991647593 
2014	-10.4882352305042 
2015	 11.1638943742801 
2016	 20.9978527509834 
2017	 34.1189741303253 
2018	 33.2111427439889 
2019	 16.6908437681011 
2020	-4.3993119902805 
2021	-13.1286784710314 
2022	-33.5324410350381 
2023	-44.9899388602807 
2024	-48.5290143622552 
2025	-51.943962572782 
2026	-55.8803937974277 
2027	-53.4244559334334 
2028	-39.8646128768298 
2029	-37.1715361596339 
2030	-36.5600001337621 
2031	-34.6633475204675 
2032	-37.6157161645029 
2033	-39.4854699857147 
2034	-30.8521368608718 
2035	-33.2175425000403 
2036	-25.5965645256868 
2037	-19.2962161937394 
2038	-25.6601673406385 
2039	-27.9412692465627 
2040	-33.4625669475899 
2041	-45.1854402542313 
2042	-46.7708599159128 
2043	-35.6865102390487 
2044	-29.4251653990491 
2045	-19.9461238951745 
2046	-17.2643634692141 
2047	-22.9996327629655 
2048	-22.6437910431954 
2049	-25.0521921120958 
2050	-20.5359608917286 
2051	-6.35361069548749 
2052	-1.35935292194146 
2053	 2.20768886347007 
2054	 16.4218741915169 
2055	 12.7677143649685 
2056	 9.93750142425636 
2057	 2.55118927159871 
2058	-21.8993443233245 
2059	-29.0819243084601 
2060	-26.1961025973581 
2061	-25.2561816240622 
2062	-11.679219319595 
2063	-8.07365977108982 
2064	-9.30915652159585 
2065	-15.2286155838532 
2066	-11.7268059906788 
2067	-23.2034131715405 
2068	-32.9147881507806 
2069	-30.6295411788483 
2070	-43.1030771988883 
2071	-40.7718948882178 
2072	-26.2116080634423 
2073	-25.8114452312092 
2074	-16.6074202980057 
2075	-12.8257857961605 
2076	-12.3972261835843 
2077	-17.9181858854125 
2078	-17.862222276092 
2079	-20.2783867689641 
2080	-15.8107303529739 
2081	-4.75639562784471 
2082	 0.818309685385526 
2083	 7.95529328706326 
2084	 8.75866042398705 
2085	-1.78207913402846 
2086	-10.8281266584644 
2087	-18.6450838422037 
2088	-22.8775131497031 
2089	-20.6761641125724 
2090	-20.2023876962883 
2091	-24.4084595743905 
2092	-30.803855221625 
2093	-30.1917755133089 
2094	-21.5513726927167 
2095	-18.1183584976852 
2096	-9.87172659792096 
2097	-6.30858372850162 
2098	-7.40083691384745 
2099	-10.648710865426 
2100	-14.3633963329913 
2101	-12.8301003852659 
2102	-11.9003544631016 
2103	-19.4935709913069 
2104	-22.032067174913 
2105	-18.156002535115 
2106	-16.9039489204313 
2107	-13.8764814300776 
2108	-10.4899814618181 
2109	-17.7529611122871 
2110	-28.339055874599 
2111	-40.6229058102309 
2112	-47.8076213445783 
2113	-48.0828901170703 
2114	-48.0251602327475 
2115	-41.2016913956516 
2116	-36.3121247450335 
2117	-29.3549215418689 
2118	-25.6866712785198 
2119	-21.3700440971167 
2120	-23.2464334718827 
2121	-25.9822655493604 
2122	-39.1126023957236 
2123	-50.9109372450489 
2124	-53.239417685064 
2125	-53.6654883819599 
2126	-53.9910703378781 
2127	-50.3713058589955 
2128	-54.6227800460244 
2129	-63.2622120018336 
2130	-62.2320944191068 
2131	-56.8388072208121 
2132	-43.1608191541962 
2133	-22.0629429824611 
2134	-1.08995081255332 
2135	 10.7957258488884 
2136	 18.4600301750827 
2137	 19.1322478603817 
2138	 8.73660127916924 
2139	 2.40630008621673E-02 
2140	-13.7524256584349 
2141	-19.209589638402 
2142	-34.9772406747113 
2143	-42.2324319294794 
2144	-36.9235298131693 
2145	-45.289650755928 
2146	-38.3103327919566 
2147	-32.6086140345204 
2148	-39.1943077652584 
2149	-28.2292363247244 
2150	-26.3312209135955 
2151	-25.9829194960688 
2152	-13.3219418365218 
2153	-17.5149964928856 
2154	-12.406388020186 
2155	 1.16565024087869 
2156	-7.08155148604462 
2157	-6.39230605111268 
2158	-9.15440537779316 
2159	-24.2481511642116 
2160	-30.2067328100083 
2161	-32.3007436688819 
2162	-31.02348161072 
2163	-24.497556313831 
2164	-16.8136281737162 
2165	-8.9574301896118 
2166	-4.42881508654558 
2167	-4.21115678584763 
2168	 0.827439777199431 
2169	 1.59237818146042 
2170	 9.82604038607001 
2171	 10.008502630126 
2172	 6.91313451882212 
2173	 9.14076221924169 
2174	-1.37495609913078 
2175	-5.5139691740828 
2176	-14.0256823233447 
2177	-23.5885076536211 
2178	-21.2726914622885 
2179	-22.0544745364776 
2180	-13.9172481089583 
2181	-13.5924290704252 
2182	-16.7746051626092 
2183	-11.5322332527024 
2184	-6.22203445313076 
2185	-3.3989316913052 
2186	 14.2311000236882 
2187	 18.9730306756484 
2188	 10.5095498238197 
2189	 15.7039452860628 
2190	 15.7017120014112 
2191	-3.38204239109604 
2192	-15.7712905376429 
2193	-27.3078747616304 
2194	-34.9874088374274 
2195	-33.7829461847081 
2196	-28.9619498853179 
2197	-16.9663371209365 
2198	-8.89208298848518 
2199	-1.98679689802599 
2200	 6.78962972309286 
2201	 3.44211628070487 
2202	 0.499245586848451 
2203	 7.8598833030191 
2204	 14.4170469594798 
2205	 24.1111209854417 
2206	 32.6171080744875 
2207	 29.8650084583934 
2208	 26.8112882065572 
2209	 18.9601946009373 
2210	 12.4961172548871 
2211	 8.3234450873438 
2212	 2.95384454248087 
2213	-5.83375647099273 
2214	-11.7731623138508 
2215	-20.6209784606562 
2216	-25.1787601485673 
2217	-24.9783906531212 
2218	-23.9890483268448 
2219	-22.2270756969115 
2220	-12.9569407858256 
2221	-5.54586679954165 
2222	 0.795194128309404 
2223	 7.14205479919512 
2224	 12.8741225266907 
2225	 17.2026811169974 
2226	 24.1155113980672 
2227	 19.1770117347101 
2228	 13.8673065426465 
2229	 14.0043100472706 
2230	 4.84401793683023 
2231	 5.61035239703635 
2232	 1.2558270380851 
2233	-7.81221473642382 
2234	-14.8931634765824 
2235	-16.3256819024681 
2236	-20.8347937041831 
2237	-27.7966493600238 
2238	-25.3742097049912 
2239	-32.7053551410667 
2240	-22.516202167592 
2241	-6.63118466136331 
2242	-3.70679735382516 
2243	 1.60919879905314 
2244	 10.4712384252222 
2245	 8.49122745480466 
2246	-5.16906982561193 
2247	-8.35891732048965 
2248	-9.76688801511098 
2249	-15.6206388592039 
2250	-17.7384065433486 
2251	-19.7889159241882 
2252	-29.8974559799543 
2253	-32.1675688785314 
2254	-24.894390505339 
2255	-24.9787064326485 
2256	-28.6334036605996 
2257	-28.7350396495072 
2258	-24.8275525364202 
2259	-15.191222127706 
2260	-0.883437700084919 
2261	 5.61663236817446 
2262	 0.385335613502522 
2263	-9.34189500092141 
2264	-17.9109723244046 
2265	-21.8479799548238 
2266	-16.9501624515411 
2267	-14.1636592680598 
2268	-2.97639484849984 
2269	 4.63879037225141 
2270	 7.82104947425558 
2271	 16.6727354853191 
2272	 10.3991497210699 
2273	 7.00580040246013 
2274	-5.35604616422663 
2275	-17.6976594055269 
2276	-22.0845780404226 
2277	-31.8894081621816 
2278	-25.7708909674267 
2279	-19.7459250303831 
2280	-18.6222933059391 
2281	-14.4505002744347 
2282	-19.0114486736463 
2283	-29.6927695025607 
2284	-38.9502758346494 
2285	-42.844421245056 
2286	-42.1375189924612 
2287	-36.7118516947916 
2288	-27.2479567398416 
2289	-7.19280130522999 
2290	-1.29494720798811 
2291	 0.402635366747273 
2292	 4.0237305230932 
2293	 4.11566191444693 
2294	 1.1448535600892 
2295	-1.88527349512149 
2296	-4.16924490779299 
2297	-16.7885470644599 
2298	-18.7921970875094 
2299	-7.3535690926365 
2300	-10.9699990521086 
2301	-19.6969782114026 
2302	-23.9334602233562 
2303	-32.6030170614616 
2304	-35.4044280257227 
2305	-31.3738872232834 
2306	-30.9165434457295 
2307	-38.0914964537686 
2308	-40.5857670345911 
2309	-39.3123028338762 
2310	-35.693239791093 
2311	-36.9289635668098 
2312	-19.9581215508376 
2313	-12.2118131877777 
2314	-10.4221520082794 
2315	-9.82419510537538 
2316	-19.9661761688045 
2317	-21.1410571828703 
2318	-18.6347425764513 
2319	-7.33812167713837 
2320	 7.9443531495931 
2321	 13.9749210458359 
2322	 8.51461204048167 
2323	-7.30302652094915 
2324	-16.2821096130226 
2325	-24.1546410145586 
2326	-19.6786127620001 
2327	-12.2524521326408 
2328	-12.1558470498153 
2329	-6.4076969874342 
2330	-18.8370021478542 
2331	-29.710856195708 
2332	-35.2155216047922 
2333	-41.5411707453691 
2334	-30.1395797954678 
2335	-18.4333302762535 
2336	-9.82550171559782 
2337	-5.2150814903602 
2338	-7.97633174085413 
2339	-14.3030477429841 
2340	-20.9873790688132 
2341	-25.4253714616391 
2342	-37.829410393527 
2343	-42.2983417678597 
2344	-40.3777176605116 
2345	-41.7557429004521 
2346	-32.5912593568824 
2347	-25.8586267954606 
2348	-21.8998933078734 
2349	-17.0999582443914 
2350	-14.6788415723115 
2351	-8.97093308334814 
2352	-2.57463014483003 
2353	-7.59745097816141 
2354	-11.9612773921862 
2355	-19.3078568778513 
2356	-27.0848695819959 
2357	-17.9559815587143 
2358	-14.7708015927437 
2359	-11.7203026111304 
2360	-12.6060051177179 
2361	-19.743166294711 
2362	-22.3868881774212 
2363	-24.7627359044386 
2364	-17.8318828366559 
2365	-17.4212936548081 
2366	-14.8342550308967 
2367	-3.54467225132259 
2368	-4.70633923052622 
2369	-1.73506297748452 
2370	-3.40864980240461 
2371	-10.9949686100285 
2372	-16.4927118256484 
2373	-26.9573678704235 
2374	-33.0002122249763 
2375	-43.1687067397847 
2376	-53.8339396343593 
2377	-54.62055968569 
2378	-42.7994710673409 
2379	-22.7323598916478 
2380	-8.96007843362907 
2381	-6.25442502994795 
2382	-16.8270188491785 
2383	-37.3384321836993 
2384	-49.6836752966064 
2385	-46.2093523328593 
2386	-37.0644896665242 
2387	-30.4269832628033 
2388	-24.5694892925746 
2389	-23.3285746377634 
2390	-29.6290314510772 
2391	-24.5025465636574 
2392	-14.2612182953992 
2393	-16.1798423632645 
2394	-15.9095491205452 
2395	-19.4871851680371 
2396	-23.6985404947816 
2397	-15.0144126609133 
2398	-8.66872022528163 
2399	-10.0753262898707 
2400	-16.1679109743575 
2401	-28.2666546734798 
2402	-41.5161910700447 
2403	-30.4022147963587 
2404	-20.0982423987913 
2405	-16.3887206924431 
2406	-2.71510375482195 
2407	-12.2420314542663 
2408	-21.9452975380875 
2409	-17.9531471997201 
2410	-20.5895023540661 
2411	-19.4108257852128 
2412	-9.97147004095241 
2413	-13.5940905821121 
2414	-24.3052730966205 
2415	-27.9296863448082 
2416	-36.9060803824265 
2417	-45.5380075494822 
2418	-41.2933467997186 
2419	-28.5240955541581 
2420	-22.568296699907 
2421	-12.1479634180007 
2422	-0.599870924805129 
2423	-14.4599221001722 
2424	-17.1555142670548 
2425	-13.7152046870132 
2426	-20.1993285157184 
2427	-6.38000067337921 
2428	-3.72402863275701 
2429	-4.55769843822447 
2430	 1.26256124518183 
2431	-6.93545872131209 
2432	-11.6475192686396 
2433	-15.6480592269543 
2434	-24.5408862246336 
2435	-34.4442679919091 
2436	-39.3294466376895 
2437	-46.0262884120825 
2438	-53.8679288408616 
2439	-50.6136224881636 
2440	-41.7815531653712 
2441	-29.2269192344991 
2442	-15.4218002954758 
2443	-7.39706128819383 
2444	-6.74624721534835 
2445	-16.1552150336003 
2446	-29.5301746997434 
2447	-35.9516971401788 
2448	-39.0075731215395 
2449	-39.6438543374544 
2450	-42.0729255732154 
2451	-43.9643877937588 
2452	-45.0401039726335 
2453	-42.0396407688534 
2454	-23.1570046048375 
2455	-4.29494163462025 
2456	 5.56764499588964 
2457	 12.9732350452905 
2458	 10.6820842227512 
2459	-0.386880977160547 
2460	 5.28232392851825 
2461	 10.7328446149373 
2462	 5.25950579367371 
2463	 12.3143771459134 
2464	 7.25041095526723 
2465	 0.684781394040404 
2466	 0.882470290850506 
2467	-0.783396187171486 
2468	 0.650846129825237 
2469	-1.05747468305066 
2470	-13.2203729772953 
2471	-22.6375751710416 
2472	-31.7552995831176 
2473	-35.4297085501814 
2474	-35.6201603993447 
2475	-37.6077720644172 
2476	-41.3778237932917 
2477	-48.7129499676271 
2478	-50.7854543371363 
2479	-54.9581419570588 
2480	-56.6877711860325 
2481	-48.348486360756 
2482	-40.2452557608605 
2483	-32.0798540851195 
2484	-23.1824639674903 
2485	-24.0658429574189 
2486	-23.2503473590706 
2487	-17.2040720652957 
2488	-14.4255402466623 
2489	 5.61529629663931 
2490	 15.6693658012706 
2491	 10.2392536384599 
2492	 14.1829612282216 
2493	 1.72832917693241 
2494	-10.6669495417459 
2495	-11.946743109802 
2496	-18.3695581943832 
2497	-23.4839404999603 
2498	-35.2128724844067 
2499	-44.667294865987 
2500	-48.2829223334064 
