Wavelength	2mm_blackPA00000.asd
350	-1.58327071322009 
351	-1.52718920889786 
352	-1.2274835935115 
353	-0.765055779436272 
354	-1.19563166074763 
355	-1.24213740943646 
356	-5.18030014466784E-02 
357	 1.1677594389776 
358	-0.22339748080142 
359	-2.61593550740329 
360	-0.911038622783847 
361	-4.18539969407149E-02 
362	-6.16518660105284E-02 
363	-0.131812162536516 
364	-0.659467369688324 
365	-1.80306036049462 
366	-2.46078974805698 
367	 0.27243120842403 
368	-0.768072154238446 
369	-3.01696495064582 
370	-1.60444628294089 
371	-9.24334946601459E-02 
372	 0.217783563922403 
373	-0.652689369087856 
374	-0.414463014321298 
375	-1.34624191828926 
376	-2.47011621747844 
377	-1.49806346955188 
378	-0.978005825197983 
379	-0.984835390134136 
380	-1.25828518224706 
381	-1.83885514982271 
382	-2.28196993316589 
383	-1.86072634063354 
384	 0.338599143737881 
385	 0.18657697888712 
386	-1.26006967400093 
387	-1.89593873249313 
388	-1.88121330284383 
389	-1.44495375429387 
390	-0.814546151005139 
391	-0.147461506145116 
392	 1.50426181057941E-02 
393	-0.761077936928469 
394	-2.4460033446729 
395	-1.49290559351387 
396	-1.00984843824646 
397	-2.50228993699285 
398	-0.871386894782672 
399	-1.2378388864837 
400	-2.79039361273638 
401	-0.365608228273101 
402	 0.542554092486593 
403	 2.76155298063064E-02 
404	-0.517546432163513 
405	-0.207027695934298 
406	-0.203354636308399 
407	-0.98811404372263 
408	-2.08310034179888 
409	-1.31378519512317 
410	-4.19096764231098E-02 
411	-0.867323245350497 
412	-1.05996832154824 
413	-1.13769322293493 
414	-1.59722394665877 
415	-1.65052630584035 
416	-1.49513176035867 
417	-1.49624716958157 
418	-2.18917623519143 
419	-1.91560347746429 
420	-1.19690045962791 
421	-1.00356130495219 
422	-1.15709341544575 
423	-0.42194161461966 
424	 0.881579827706022 
425	-1.02578482534149 
426	-1.46158689661031 
427	-0.269007809440981 
428	 0.366773897999217 
429	 0.597239407358914 
430	 0.647917480844791 
431	 0.534636565111825 
432	-0.983482483938777 
433	-1.47072029902813 
434	-1.00890841949649 
435	-3.15305099599884 
436	-3.15523994774976 
437	-1.62891746429663 
438	-1.11432005481774 
439	-1.5555329708063 
440	-1.65711088254102 
441	-0.82621404870279 
442	-0.801651669893434 
443	-1.06333802239942 
444	-1.22054128192851 
445	-0.936107087613631 
446	-1.0197568573112 
447	-0.962645736720314 
448	-0.324238189680571 
449	-1.8306664107545 
450	-2.65481785915599 
451	-1.46651230606624 
452	-0.873586383454068 
453	-0.572251093835879 
454	-0.645509419010566 
455	-1.28055418832506 
456	-1.21777068083805 
457	-1.3151516648589 
458	-2.36591693556248 
459	-2.28790491316759 
460	-1.58958221328091 
461	-0.945487298425293 
462	-1.26127524089512 
463	-1.01350995254388 
464	-0.904998105221399 
465	-2.61825582296843 
466	-2.48828300291741 
467	-1.33673974046364 
468	-0.743844260307804 
469	-1.50739409171153 
470	-1.76421625941537 
471	-1.22136067920329 
472	-2.2114463288335 
473	-2.26404816815503 
474	-1.22444492381854 
475	-0.130866297941288 
476	-1.22693532859444 
477	-2.5270160356564 
478	-2.16012447343621 
479	-1.47141511729102 
480	-1.05471538941928 
481	-0.932923334983002 
482	-0.275224236382424 
483	-0.779579892261948 
484	-2.27903279688085 
485	-3.63524446200639 
486	-3.00084080142934 
487	-1.59936735186737 
488	-0.692289405502935 
489	 0.526553439835539 
490	-0.211797705589552 
491	-2.37525135460849 
492	-1.56701256338505 
493	-2.26023275989475 
494	-3.29171239961343 
495	-1.68588328763345 
496	-1.26722930680844 
497	-2.26258004561655 
498	-3.78291391200421 
499	-3.16634623359615 
500	-2.89734919885641 
501	-3.07520553501499 
502	-0.460188615161393 
503	-6.43871889014519E-02 
504	-1.27760086283058 
505	-1.35506932207958 
506	-2.20677943118428 
507	-3.02554786717043 
508	-2.97212274371326 
509	-2.24425490149768 
510	-2.22311635410721 
511	-2.95564227568065 
512	-2.66146396967829 
513	-2.78036884349424 
514	-3.1753351197542 
515	-3.07422147953329 
516	-2.24131401772539 
517	-1.61427206541546 
518	-1.77604215254874 
519	-1.17224559958198 
520	-1.4005663323419 
521	-2.67188473442833 
522	-3.23985832601341 
523	-2.77186810749356 
524	-2.04575288876305 
525	-2.360487947591 
526	-1.95420535422991 
527	-1.30045894563892 
528	-1.27378524039527 
529	-2.994191890013 
530	-3.21032343900803 
531	-1.41709517490611 
532	-1.63667882338561 
533	-2.158282671759 
534	-2.39768527517942 
535	-2.22634495264183 
536	-3.67471281573152 
537	-4.32956730909488 
538	-2.42827305588465 
539	-3.68780197019009 
540	-3.82804228226978 
541	-1.4195591300092 
542	-0.656932724392234 
543	-1.83919924007564 
544	-3.90726931918526 
545	-4.5903870020718 
546	-2.84692409709422 
547	-0.873316426902668 
548	-1.20946813683215 
549	-3.51982309009401 
550	-4.64058045862593 
551	-3.32653296488843 
552	-2.36353635396054 
553	-2.00023229770013 
554	-2.09009631967063 
555	-2.03480745585468 
556	-2.76386853963236 
557	-3.05312370117271 
558	-1.80513917713219 
559	-3.03075557121429 
560	-4.36547687973331 
561	-3.97210210722767 
562	-2.36689674622583 
563	-1.93443813747441 
564	-2.94234346280328 
565	-3.68744965113309 
566	-3.68161114879634 
567	-2.81118911155985 
568	-1.48659212316778 
569	-2.32911437137391 
570	-3.53966353848728 
571	-3.68247844221261 
572	-4.2828219265762 
573	-3.71685582474838 
574	-2.46496331928951 
575	-3.74370247230464 
576	-3.60949499409231 
577	-2.46232542750799 
578	-2.44654174989688 
579	-4.05079294264017 
580	-4.77735078568634 
581	-3.16267463869354 
582	-3.59897714057841 
583	-2.79511326779209 
584	-0.400074132917285 
585	-0.815333947592072 
586	-2.4373744603629 
587	-3.83564532073922 
588	-3.44502795242054 
589	-2.67846856903776 
590	-1.67345672445496 
591	-0.671791013661649 
592	-1.6453595137142 
593	-2.83551536202814 
594	-3.40193514084714 
595	-4.7098728708029 
596	-5.2012281640519 
597	-4.25638202648924 
598	-1.87659766901563 
599	-1.16718034213589 
600	-2.07009625355522 
601	-3.43879960018105 
602	-3.94376301415261 
603	-3.73511664443961 
604	-3.15274963840942 
605	-2.50695523900962 
606	-2.25336205559829 
607	-2.13210358727678 
608	-1.12626953790868 
609	-2.53026937925817 
610	-4.62727236573155 
611	-4.33126921363304 
612	-3.34143975275821 
613	-2.13008220147903 
614	-1.30914264683546 
615	-2.57789978757815 
616	-3.4795454136608 
617	-3.27981846527981 
618	-3.27393978706251 
619	-3.01202756902008 
620	-2.7211921659564 
621	-2.83422323835512 
622	-2.94515365327425 
623	-3.24522581599506 
624	-3.73341258744095 
625	-3.25506457015936 
626	-2.72506206717275 
627	-2.53496991121506 
628	-2.04432848243822 
629	-3.00453108712723 
630	-4.03613044313832 
631	-2.16803559902874 
632	-2.48959530830756 
633	-3.61138385912462 
634	-3.28517725333903 
635	-2.84997480602315 
636	-1.98804123402847 
637	-1.1786778489362 
638	-3.06528874911978 
639	-4.50389118748485 
640	-4.35993456951072 
641	-2.81709287335849 
642	-2.89128759330547 
643	-3.16395526626636 
644	-1.62049546669997 
645	-1.82735623482805 
646	-3.0196952478047 
647	-4.03725695372058 
648	-3.70031098457481 
649	-3.30068940634948 
650	-3.13404167525631 
651	-2.56163732889674 
652	-2.55918860197896 
653	-3.17958759517671 
654	-4.0320033168055 
655	-4.13405898837495 
656	-3.62988030857383 
657	-2.98281135875122 
658	-3.09136150345873 
659	-3.21890507652713 
660	-3.13757108240256 
661	-3.29023629609866 
662	-2.95163170824749 
663	-2.4500863364749 
664	-2.50550380688557 
665	-2.09800363030209 
666	-1.93093369865129 
667	-2.58017425829149 
668	-3.07909838873751 
669	-2.85087358365377 
670	-2.14536089848382 
671	-2.72707409292674 
672	-2.21738661067711 
673	-1.52813311283375 
674	-3.17448963598532 
675	-3.26575975250474 
676	-2.66890177607504 
677	-2.94003310556292 
678	-3.74712486415338 
679	-3.29203098021727 
680	-1.60194742322081 
681	-2.60012044906419 
682	-3.08901704079483 
683	-2.8616800133282 
684	-3.54569125437591 
685	-3.99732351192658 
686	-3.67908238086876 
687	-2.59762192780997 
688	-3.04755238432657 
689	-3.58347944141026 
690	-3.28404030425849 
691	-3.04753235744213 
692	-2.83722725834499 
693	-2.69279579131322 
694	-2.68666419689666 
695	-3.02367037146736 
696	-3.34155260037449 
697	-3.24541384965544 
698	-3.58708300505446 
699	-3.86377283990303 
700	-3.74070395458483 
701	-3.67518372306103 
702	-3.52362416113858 
703	-3.44550281588694 
704	-3.95264483675144 
705	-3.06856254251595 
706	-2.04341376117208 
707	-2.89147543398411 
708	-3.17579429078989 
709	-2.886636989382 
710	-2.45498561860776 
711	-2.67302089671725 
712	-2.75389870626236 
713	-2.7474074067891 
714	-3.77794957125825 
715	-2.65256761047181 
716	-1.54618697324761 
717	-4.01763901631027 
718	-3.91939239714196 
719	-2.56537267359088 
720	-1.8493600530697 
721	-1.71868937130778 
722	-2.63884416230542 
723	-3.9476952970801 
724	-3.41107878044443 
725	-3.03785681187851 
726	-3.28016133095894 
727	-3.83768781122913 
728	-2.74319266487769 
729	-1.50449199242749 
730	-1.65210803010834 
731	-3.02719870529362 
732	-3.84313319724578 
733	-3.56250546960545 
734	-3.32229400184765 
735	-1.69690670602318 
736	-0.239334686627081 
737	-1.52124112906184 
738	-3.1424432104392 
739	-3.90268807348587 
740	-3.44752110338334 
741	-3.63523700914272 
742	-2.97601264222954 
743	-1.56637815899404 
744	-1.74254608517166 
745	-2.20212133037745 
746	-2.8757744834692 
747	-4.00539014793984 
748	-4.15956186023018 
749	-4.0277958459499 
750	-4.2127436822134 
751	-3.63730490525813 
752	-3.45184104458955 
753	-3.9556525286557 
754	-4.41850125655183 
755	-3.81512937838693 
756	-2.79346575925466 
757	-2.67656559652112 
758	-2.74672249881247 
759	-3.12761262224766 
760	-3.72421449459841 
761	-3.31477026999432 
762	-3.10960988913199 
763	-3.365969822337 
764	-3.23332456745791 
765	-2.4216231563901 
766	-1.86679132935502 
767	-2.83065109408692 
768	-4.33880637616327 
769	-5.02082118144272 
770	-4.40025963333456 
771	-4.76578648708708 
772	-3.87640942349536 
773	-2.17674025090401 
774	-2.94804972644006 
775	-2.88825602859194 
776	-2.55919687008167 
777	-3.27735016974743 
778	-1.76487382953551 
779	-0.973165876037477 
780	-2.56136106675334 
781	-3.55755344760054 
782	-4.25194550249107 
783	-4.45362829956255 
784	-3.66644659818205 
785	-3.39606914978774 
786	-3.51053485400193 
787	-3.39524471179089 
788	-2.52175043329427 
789	-2.66663286621077 
790	-3.97812779487706 
791	-2.74140934579072 
792	-2.15732165146577 
793	-2.48520904659897 
794	-2.27734030246632 
795	-2.14069424468298 
796	-2.14749206170241 
797	-2.29923236316025 
798	-2.75106044802448 
799	-3.19411214447834 
800	-3.33545457424626 
801	-2.86398224575464 
802	-2.21472339358457 
803	-1.95027573385666 
804	-2.53305521780217 
805	-1.96006238828186 
806	-1.90778367063142 
807	-3.3485175780756 
808	-3.19193703171832 
809	-2.13430069081314 
810	-1.37867987410215 
811	-2.80861755058063 
812	-3.34028045187616 
813	-3.06495486707971 
814	-2.97144191527595 
815	-2.15017086843928 
816	-2.18519665939411 
817	-3.60796045832233 
818	-4.36484442941659 
819	-3.54463263672802 
820	-2.19359532149337 
821	-2.7806761166995 
822	-3.88126187581542 
823	-4.21228498077253 
824	-3.19077514669831 
825	-3.14644285586059 
826	-2.97068096438639 
827	-2.48344107375413 
828	-3.07664426556241 
829	-3.52210447905986 
830	-3.2127909685939 
831	-2.08810227653609 
832	-3.07851472056598 
833	-3.66693733095688 
834	-2.6512748809023 
835	-4.49942454464117 
836	-4.75939774941137 
837	-2.91176343207495 
838	-1.56990906282532 
839	-2.67383996422865 
840	-4.18036432821425 
841	-3.66154875983499 
842	-2.19012788774772 
843	-2.52704708709171 
844	-4.73398367747489 
845	-4.66321603396856 
846	-4.15183968587746 
847	-3.54850414838064 
848	-2.83813573575717 
849	-2.9225945190767 
850	-3.57877050340642 
851	-4.23698982736166 
852	-3.80576110119487 
853	-3.28046228947712 
854	-2.89258042285176 
855	-2.36738145305113 
856	-2.69988252150681 
857	-3.06822450880714 
858	-2.74727346969729 
859	-3.32307654967244 
860	-3.21261245265702 
861	-2.4674964675496 
862	-3.39233822621436 
863	-3.57456111908192 
864	-2.86099869198674 
865	-2.0277020218679 
866	-2.59681924293075 
867	-2.69390473826176 
868	-1.78575161051433 
869	-2.73345397785304 
870	-3.55132164480785 
871	-3.5612316376682 
872	-2.81838510727965 
873	-3.01421514295699 
874	-3.58836587881252 
875	-3.7796974346563 
876	-3.27266848716335 
877	-3.27489385964771 
878	-3.61569296230355 
879	-3.03558615337871 
880	-2.76530514883728 
881	-2.41770406001694 
882	-1.7871683196033 
883	-3.01588878213305 
884	-3.9337033718677 
885	-3.88359326073858 
886	-4.11031710915746 
887	-2.34581315758287 
888	-0.829514683137857 
889	-2.24340690808939 
890	-3.58937748515828 
891	-3.91338988386582 
892	-3.19379485526293 
893	-2.53807907281606 
894	-2.57017117764492 
895	-3.03134075696417 
896	-3.37909043878906 
897	-4.66043670893897 
898	-4.97334786942615 
899	-3.52221233651678 
900	-1.98881309674883 
901	-1.71280510978889 
902	-2.64219379065553 
903	-3.78847194005543 
904	-3.76250494428329 
905	-3.18190802913729 
906	-2.62812102050229 
907	-1.68459406513274 
908	-1.84633541953661 
909	-2.82215158730514 
910	-3.25910168486927 
911	-3.27998479544406 
912	-2.95675245874276 
913	-2.63434064828698 
914	-3.40848805991422 
915	-4.15087459292404 
916	-4.16858885551224 
917	-3.17439561695112 
918	-2.75966544171381 
919	-2.92504761428284 
920	-3.29950672696471 
921	-3.53997054086439 
922	-2.78849085135147 
923	-1.71369759208042 
924	-2.06173462618141 
925	-3.17912682691888 
926	-3.13576607618434 
927	-1.30792728435871 
928	-1.58280998653492 
929	-3.15882048039906 
930	-4.17441263869103 
931	-2.26739617716371 
932	-2.99351267281486 
933	-3.83092705966861 
934	-2.59016050886836 
935	-2.99089388477599 
936	-2.32831958516573 
937	-0.929146318034405 
938	-1.20570041735509 
939	-2.47926082919704 
940	-3.50780545835363 
941	-3.54087151971703 
942	-3.67071186374873 
943	-1.88346698989701 
944	-0.190517530271298 
945	-2.61327682100834 
946	-2.73353646204339 
947	-1.64137830905354 
948	-1.43390569853138 
949	-4.08179830759217 
950	-4.09395537939433 
951	-2.17168133371344 
952	-2.25749973166693 
953	-3.34823741256747 
954	-3.84935017395014 
955	-3.17495408262948 
956	-3.01759219164558 
957	-2.85537747791159 
958	-2.73424302405612 
959	-2.82983135311096 
960	-2.80266561892825 
961	-2.90633171839775 
962	-3.21888301507356 
963	-3.45739529453376 
964	-3.4929518992706 
965	-3.67309790105444 
966	-4.2346583276833 
967	-4.30328622352574 
968	-5.8968380732726 
969	-5.35032852160319 
970	-1.31100687306939 
971	-1.37476988241264 
972	-3.23834762498005 
973	-4.5676978191983 
974	-9.90721008614074 
975	-10.5022402172528 
976	-9.7131719573221 
977	-4.65660056970977 
978	 0.815255847315636 
979	 5.63065972379332 
980	 4.7210566166589 
981	 3.18686737707971 
982	 3.57659996478605 
983	 8.24868475133226E-02 
984	-2.40875847137003 
985	-3.45274940941486 
986	-4.37305507767851 
987	-7.0552641065524 
988	-6.28489429095494 
989	-1.07209035932954 
990	 0.389037270267082 
991	 1.51470391831891 
992	 0.975713117522653 
993	-1.67356778054381 
994	-5.5297281360855 
995	-6.39312758909783 
996	-4.47677693356299 
997	-3.00090045618443 
998	-0.420513204909542 
999	 1.11092632271434 
1000	-0.995545103739723 
1001	-2.93155949727261 
1002	-2.60593312009677 
1003	-2.43195751868385 
1004	-0.898178027866493 
1005	 0.895769825478236 
1006	 6.41657208456071 
1007	 6.00489316772444 
1008	 3.13710266532098 
1009	-1.31811686850398 
1010	-5.49722494581722 
1011	-11.0185752784267 
1012	-12.7920108274289 
1013	-7.63147513299704 
1014	-3.91401339006618 
1015	-2.65792159453561 
1016	 0.516553381996315 
1017	 1.1192879361534 
1018	-0.91689563074031 
1019	-0.910061900160492 
1020	-3.71811610259386 
1021	-6.12959751810831 
1022	-3.16402316992056 
1023	-1.51296562477576 
1024	 1.80131719293859 
1025	 4.64972442904938 
1026	 4.64491987933487 
1027	 2.46286503784417 
1028	 1.05210780273585 
1029	 0.628181369809311 
1030	 2.66696968235652 
1031	 3.31303079210824 
1032	-1.80535434819822 
1033	-4.5931803348224 
1034	-3.96093725948689 
1035	-4.86829997363728 
1036	-1.95039933660906 
1037	 0.383308033231593 
1038	-2.03003044886779 
1039	-2.72410185095201 
1040	-3.39763405788627 
1041	-5.18094918204457 
1042	-5.73228353707439 
1043	-4.60019494131439 
1044	-4.33686534697926 
1045	-5.15765690114602 
1046	-5.56101930918349 
1047	-5.81774543102927 
1048	-4.93124457576389 
1049	-4.32237763777188 
1050	-1.58631809634467 
1051	 1.78644672855762 
1052	 2.37132961788686 
1053	 3.20078334281507 
1054	 2.05945754687337 
1055	 0.347156902698644 
1056	-0.892438793416134 
1057	-1.63880006627796 
1058	-0.960223708511807 
1059	-1.57659802905325 
1060	-4.47675748476641 
1061	-4.60862598818226 
1062	-3.11326138274608 
1063	-3.85419823647532 
1064	-5.03813641050318 
1065	-1.27545929286372 
1066	-1.68483388997472 
1067	-4.52542829672503 
1068	-1.27271248334973 
1069	-4.32703318719048E-02 
1070	-2.13494497292328 
1071	 4.57044846402622E-02 
1072	 1.69268505662272 
1073	 1.21852290477435 
1074	-0.211294805405361 
1075	-2.86153797403872 
1076	-3.13183491876088 
1077	-4.57141277078975 
1078	-5.05217278853053 
1079	-1.57609472402833 
1080	-0.423341878586594 
1081	-0.466942617958056 
1082	-1.48371537181895 
1083	-3.91560641560479 
1084	-5.24995517385535 
1085	-5.10956974080252 
1086	-5.95135996042975 
1087	-3.13405815698136 
1088	 1.07696668616631 
1089	 0.560680661333477 
1090	 0.517592511498446 
1091	-0.561977262442924 
1092	-5.10920605791223 
1093	-5.16724887981965 
1094	-2.59495623257249 
1095	-2.35501399476406 
1096	 4.11168577895474E-02 
1097	 0.686930213364785 
1098	-2.480736374092 
1099	-2.77652232067686 
1100	-0.923601841368137 
1101	-0.711289426539515 
1102	-0.598545228132936 
1103	-0.636798869569932 
1104	-2.33280303374389 
1105	-2.35181267141923 
1106	-0.595542688271942 
1107	 0.338200190619749 
1108	 2.1005475468982 
1109	 5.71258752797795 
1110	 5.6820665725952 
1111	 2.89673938426577 
1112	 2.70635607981672 
1113	 2.01206599158931 
1114	 1.00713623333157 
1115	 1.79543773926624 
1116	 1.26459443926705 
1117	-1.95657662887026 
1118	-2.86317949977102 
1119	-2.2854029967411 
1120	-2.04764482218116 
1121	-0.264316642847043 
1122	-0.355701232479253 
1123	-2.52665833667716 
1124	-3.04036121725837 
1125	-3.83654675290203 
1126	-4.52261952236342 
1127	-3.2200186135131 
1128	 1.08236679087379 
1129	 1.19180924777965 
1130	 0.78992982824589 
1131	-0.314344496273659 
1132	-4.79507122975389 
1133	-5.56590242652057 
1134	-4.42628983892927 
1135	-4.42055557239488 
1136	-2.19339104042688 
1137	-3.4080958908144 
1138	-9.50571956849125 
1139	-10.0107874897971 
1140	-8.37375701210276 
1141	-8.16691820447991 
1142	-3.71811884136008 
1143	-2.72074323414044 
1144	-8.25951533988779 
1145	-8.75446729380486 
1146	-5.83562126417071 
1147	-4.64267136050474 
1148	-3.08005497438471 
1149	 1.15026834178944 
1150	 2.08600228607753 
1151	-0.173006580325935 
1152	 0.64148843847525 
1153	 3.10197848256465 
1154	 3.02736062497598 
1155	 2.8549445465191 
1156	 2.12206793566654 
1157	-1.90129551889269 
1158	-2.25545727908265 
1159	 0.231642225740567 
1160	 0.532560243825623 
1161	 1.29794914149043 
1162	 1.63440951619099 
1163	 0.638086000268605 
1164	-0.103635106677545 
1165	-0.154616840093757 
1166	-0.775893252562389 
1167	-3.07475105565096 
1168	-4.0380419037538 
1169	-2.35376966389714 
1170	-2.40279505596903 
1171	-2.31398808717317 
1172	-0.894008135624475 
1173	-1.38930469394688 
1174	-4.09340631026919 
1175	-4.80163288268415 
1176	-5.0492119017628 
1177	-5.59420056201848 
1178	-5.85219792236229 
1179	-5.97716195606326 
1180	-5.38943479038288 
1181	-6.58907999221904 
1182	-9.16987905374736 
1183	-9.97676324828987 
1184	-12.4162446909267 
1185	-12.2671986251903 
1186	-7.07333644816837 
1187	-5.97452631448259 
1188	-7.36395802141855 
1189	-6.96766295697117 
1190	-6.38294138020567 
1191	-7.68616273495674 
1192	-9.95888224895566 
1193	-8.97697749198452 
1194	-9.31639498148807 
1195	-10.6217817585008 
1196	-8.19789102532349 
1197	-1.16136476422186 
1198	 2.08433021415119 
1199	 6.74551496953434 
1200	 7.39483720884246 
1201	 5.14545031987968 
1202	 2.38034647548553 
1203	-4.19809637594217 
1204	-7.12683122655135 
1205	-9.9407292909814 
1206	-10.985613366116 
1207	-8.89254629148869 
1208	-8.18207727742436 
1209	-7.09743469172117 
1210	-6.1661789873666 
1211	-4.32054248648263 
1212	-5.50376094246149 
1213	-6.35610817331272 
1214	-5.64635324350814 
1215	-5.32296040858327 
1216	-6.44866256383713 
1217	-5.40105708165985 
1218	-3.9919210741585 
1219	-2.78229360084206 
1220	-0.519615114664737 
1221	 0.499899999512724 
1222	 1.27458393254924 
1223	 0.833521325426017 
1224	-1.69828828595765 
1225	-1.10117579866439 
1226	 0.348978981440224 
1227	 1.83525159537617 
1228	 6.48452529054993 
1229	 6.6198738710126 
1230	 3.80556203619479 
1231	 1.96008296779069 
1232	-2.40403229152125 
1233	-3.99306560219704 
1234	-3.18326551247523 
1235	-3.04692339646532 
1236	-1.6560721374023 
1237	-2.80609380962855 
1238	-1.93645829363257 
1239	-4.28017363060933 
1240	-8.36790262225927 
1241	-6.72085507132881 
1242	-5.88653310765642 
1243	-5.45563774394323 
1244	-2.18431318094089 
1245	-0.854074268956291 
1246	-1.37253385637418 
1247	-0.463163343366019 
1248	 0.418846204010647 
1249	-1.29306971153463 
1250	-2.00494276234709 
1251	-2.52856056697406 
1252	-2.38741169212599 
1253	-2.02853628041001 
1254	-1.1816411065599 
1255	 0.834463159132567 
1256	 0.862258326688509 
1257	 4.61616182365886E-02 
1258	-0.47189967104751 
1259	-2.31390286363926 
1260	-2.11874159751699 
1261	 0.11248593543054 
1262	 5.36651829325762E-02 
1263	-1.08400319894173 
1264	-2.43735384638744 
1265	-4.40405255545228 
1266	-7.4101508753586 
1267	-9.19747770795105 
1268	-7.48011014899507 
1269	-3.66721744907119 
1270	 0.153198503238125 
1271	 3.81913303747964 
1272	 6.39138259993228 
1273	 5.74291920838199 
1274	 4.2861659148596 
1275	 2.88512587247913 
1276	-4.62929349717695E-03 
1277	-2.23246172468456 
1278	-4.48052691919841 
1279	-5.52739062385226 
1280	-4.49888140231754 
1281	-3.79918953582195 
1282	-1.94101767950123 
1283	-1.95766231094717 
1284	-4.25350082511749 
1285	-4.74883162197178 
1286	-4.64490974948977 
1287	-4.94535390419946 
1288	-4.94026959036882 
1289	-2.72549699596908 
1290	-3.47813851891226 
1291	-5.00065983354987 
1292	-1.69938604986899 
1293	 1.46053216474606 
1294	 3.74071606344414 
1295	 5.72467985910303 
1296	 2.87606625309363 
1297	-1.24681563761492 
1298	-4.58987283299719 
1299	-6.05793695074933 
1300	-4.09979705675379 
1301	-1.98568332618822 
1302	 0.816007062062345 
1303	 1.83852271202176 
1304	 1.36112161286859 
1305	 0.34602475491766 
1306	-1.53038646265506 
1307	-2.64974885472859 
1308	-4.45345115962984 
1309	-3.77838703881128 
1310	-2.74568121334216 
1311	-3.44314041870667 
1312	-3.0373514357457 
1313	-2.87021240843423 
1314	-2.70886317499625 
1315	-1.94086000638497 
1316	-1.0329965535325 
1317	 1.3812699563133 
1318	 1.16900044966153 
1319	-1.70150132042845 
1320	 5.94811538051209E-02 
1321	-4.98542565192768E-02 
1322	-3.41621073708023 
1323	-1.00363248852437 
1324	-1.45823471636298 
1325	-5.16738431272783 
1326	-5.6184927935694 
1327	-6.25577267424682 
1328	-9.25829390301137 
1329	-8.64085234100559 
1330	-5.62225872465547 
1331	-4.81419035780703 
1332	-3.52515127900813 
1333	-2.95947181600538 
1334	-3.18744311042323 
1335	-3.35254634656639 
1336	-3.34831907472711 
1337	-2.00108738740969 
1338	-1.93655958766167 
1339	-3.31396776700848 
1340	-3.5102623726603 
1341	-3.90546696326684 
1342	-4.13198217856824 
1343	-2.90429496096115 
1344	-1.41665054710742 
1345	-0.698048015096011 
1346	-1.50210853025895 
1347	-1.48104178655134 
1348	-1.66234787188504 
1349	-1.66487800544337 
1350	-0.309760349069826 
1351	-0.058332163276875 
1352	-1.37835260391548 
1353	-0.936726038154075 
1354	 0.832771060184805 
1355	-0.882984146680898 
1356	-1.8455131566639 
1357	-1.05630920890035 
1358	-3.88315896171704 
1359	-3.05603554109876 
1360	 0.288326767265478 
1361	-1.3565534916462 
1362	-2.18780116882811 
1363	-4.20627628626619 
1364	-9.46929147982933 
1365	-9.78405308855976 
1366	-8.31130381809522 
1367	-8.55977533683913 
1368	-8.97699461442552 
1369	-10.6090304585006 
1370	-11.4855752575407 
1371	-9.94438840543123 
1372	-5.25486491794912 
1373	-2.45468435333205 
1374	-2.43361922957135 
1375	-2.84306678555235 
1376	-5.86245896442023 
1377	-6.82174041457962 
1378	-4.96182293644932 
1379	-4.46260576592727 
1380	-2.98391361368729 
1381	-1.84218336989996 
1382	-3.27471455024506 
1383	-2.56184683205167 
1384	-1.47305541573558 
1385	-1.20322973531561 
1386	 0.400676870943362 
1387	 0.185995651904056 
1388	 0.313145213263678 
1389	 3.78415814588425 
1390	 5.116070316576 
1391	 5.78135162609382 
1392	 5.50155855554482 
1393	 3.34610942409106 
1394	 2.41574767008878 
1395	 1.05544776845539 
1396	 2.28897713058228 
1397	 4.39298519436733 
1398	 3.03403137576097 
1399	 0.61656902471393 
1400	-0.284112493240195 
1401	-3.92464898056662 
1402	-4.61902003770499 
1403	-4.88051629560636 
1404	-6.46280366097223 
1405	-4.42989757360326 
1406	-4.09347136426952 
1407	-3.64557490987352 
1408	-3.09923835755465 
1409	-2.75948296877587 
1410	-4.12831458253769 
1411	-5.99620043340587 
1412	-3.98818539116938 
1413	-6.09019285026613 
1414	-7.7726709447462 
1415	-3.43657470392024 
1416	-1.18006643568871 
1417	 1.14146370547362 
1418	 4.58945727101063 
1419	 3.30547860848305 
1420	 0.402601573045076 
1421	 0.217875293582119 
1422	-0.221905053031274 
1423	-2.63571634649925 
1424	-4.27200378819432 
1425	-4.82037435315287 
1426	-4.95487765099171 
1427	-2.74411542902862 
1428	 1.15257160256902 
1429	 1.73197188219206 
1430	 4.91709704575713E-02 
1431	 1.06287732733841 
1432	 0.18937595367577 
1433	-0.680243085729944 
1434	 2.13491846997291 
1435	 3.03422578103418 
1436	 2.72351112638225 
1437	 0.769420644290873 
1438	 0.180968873195511 
1439	 2.20487753552462 
1440	 1.90545846265707 
1441	 3.41145852833794 
1442	 3.8171489321766 
1443	-0.118467453298458 
1444	-1.14308467665498 
1445	-2.37549616079368 
1446	-4.49176391953348 
1447	-4.67982879423716 
1448	-2.90807918058074 
1449	-2.33411862990086 
1450	-9.01188282084903E-02 
1451	 0.487380624258443 
1452	-6.6184591094815E-03 
1453	-2.25770939513048 
1454	-1.24937424326111 
1455	-0.513974511417961 
1456	-1.33506279170174 
1457	 0.110468172964765 
1458	-0.75707878211922 
1459	-2.64930280812158 
1460	-0.989556996748469 
1461	-0.172858228143582 
1462	 0.358052384954583 
1463	 1.89854329530182 
1464	 2.16197592877614 
1465	 0.986915928799243 
1466	 6.57906499587584E-02 
1467	-0.276083768346922 
1468	-1.62415310805696 
1469	-1.66480421260783 
1470	-1.28177909344178 
1471	-3.15714955379737 
1472	-4.48312321375843 
1473	-3.288302201747 
1474	-2.89378505284539 
1475	-3.03768837080629 
1476	-0.347139638455638 
1477	 0.641353854377481 
1478	-1.67031610101788 
1479	-3.42317009543365 
1480	-4.24397028048559 
1481	-4.21234298579145 
1482	-4.65632751653282 
1483	-4.74032375235645 
1484	-3.91179069521361 
1485	-4.43497723704381 
1486	-4.34295017132541 
1487	-2.5014774576991 
1488	-6.93769605193381E-02 
1489	 0.301765314591787 
1490	-0.739024311986957 
1491	 0.565448114268731 
1492	-0.330984582401896 
1493	-2.28915846670233 
1494	 0.139161936466298 
1495	 2.60568934828265 
1496	 3.62776160647874 
1497	 3.34631284687544 
1498	-1.69813097357779 
1499	-5.58758782577405 
1500	-7.19692426131095 
1501	-9.50128335996079 
1502	-5.525060920727 
1503	-1.36850443494248 
1504	-2.93767098636578 
1505	-2.7739521905626 
1506	-2.88860331957338 
1507	-3.99192291810575 
1508	-2.65035791371709 
1509	-1.30606043421094 
1510	-1.29158222408506 
1511	-3.92640376784512 
1512	-7.03302757461369 
1513	-8.75940570368387 
1514	-9.75682625197796 
1515	-8.49367554527793 
1516	-4.75981155671327 
1517	-2.6608804539519 
1518	-2.99713484884389 
1519	-2.42658269170851 
1520	-0.733890277294532 
1521	 0.712685289921784 
1522	 1.62447249629036 
1523	 2.03659104866344 
1524	 9.67107913177758E-03 
1525	-0.618053014000943 
1526	 1.901412284496 
1527	 3.75598866278754 
1528	 4.80205879050858 
1529	 3.27320937446548 
1530	 1.21925926805125 
1531	 2.33063946546576 
1532	 2.12373622396423 
1533	 0.518025536009843 
1534	 0.624921603225101 
1535	-1.72710113997985 
1536	-3.80543314876419 
1537	-1.39502822998077 
1538	-0.495304688900745 
1539	-0.800777820157874 
1540	 1.31788366469064 
1541	 1.93611238502217 
1542	 1.71206574133086 
1543	 3.72755814443624 
1544	 5.30784266158858 
1545	 6.62028160699763 
1546	 8.27398190189883 
1547	 6.38095179990743 
1548	 1.03330436662847 
1549	-2.93790542027113 
1550	-3.92610661407279 
1551	-3.43943849235699 
1552	-1.77368670868076 
1553	-0.451246403165604 
1554	-4.09657294435356 
1555	-6.32095536028287 
1556	-7.1707089277055 
1557	-8.25930267714098 
1558	-3.09395199122963 
1559	-1.77132994698721 
1560	-0.199818251649525 
1561	 3.216332925379 
1562	-5.46458140134131E-02 
1563	-0.844735585644351 
1564	-1.17434378967412 
1565	-2.55022061444809 
1566	-1.60788513949979 
1567	-2.40837210977249 
1568	-2.51567927227945 
1569	-4.09730238124081 
1570	-7.539782443898 
1571	-8.98777566752957 
1572	-10.3504052033063 
1573	-9.99817068719813 
1574	-7.33867536370343 
1575	-3.49585207494685 
1576	 0.13766834069017 
1577	 1.16240159092629 
1578	 1.54982878430978 
1579	-0.16057709412838 
1580	-4.45605027585564 
1581	-6.20541996115505 
1582	-7.73606540664654 
1583	-8.42496221346322 
1584	-6.42746085599326 
1585	-5.11441219839793 
1586	-2.96609563909719 
1587	-1.38976649212973 
1588	-2.34239346380101 
1589	-3.15158947492028 
1590	-3.88343133272967 
1591	-5.93643979122564 
1592	-7.68476305435933 
1593	-7.45351779215592 
1594	-6.07796132714693 
1595	-5.64468978895528 
1596	-3.18188153356715 
1597	 0.782495782341529 
1598	 0.539308017315652 
1599	 1.13347468379987 
1600	 2.62452151681636 
1601	 0.536962643192671 
1602	-0.846426759381293 
1603	 0.605288783729521 
1604	 2.3826709265666 
1605	 2.29787437201946 
1606	 1.54653930494904 
1607	-1.1157703057552 
1608	-6.53673526393925 
1609	-9.32239602099551 
1610	-8.8687849854582 
1611	-7.78525467816648 
1612	-6.68435744400241 
1613	-5.40105855762774 
1614	-5.208592840787 
1615	-7.46697488803432 
1616	-7.95856810601177 
1617	-9.28389355555217 
1618	-12.3335531185643 
1619	-11.0638887779132 
1620	-8.08102590365625 
1621	-5.08873412978848 
1622	-2.82306153724557 
1623	-1.76095600207211 
1624	-0.239464484736379 
1625	-0.571817207522589 
1626	-0.309443146171758 
1627	 2.17589071362581 
1628	-0.153992991631489 
1629	-2.96035819446436 
1630	-1.98952934205813 
1631	-3.36376802180317 
1632	-1.91458147575601 
1633	-0.704814441966902 
1634	-1.77423231901161 
1635	-2.20435331924492 
1636	-2.86591161199312 
1637	-3.95725351999627 
1638	-6.73835639997884 
1639	-6.99314165296535 
1640	-6.66337662597804 
1641	-5.8455588497127 
1642	 0.009663622936258 
1643	 0.26601828482965 
1644	-4.19451816965093 
1645	-5.52476625751584 
1646	-9.57434737349005 
1647	-10.5117779715355 
1648	-6.56201310180842 
1649	-5.53081474853412 
1650	-5.53711736766249 
1651	-3.7336922981238 
1652	-1.36227700727024 
1653	-3.92223172929919E-02 
1654	 1.98524533494436 
1655	 3.32468757667085 
1656	 3.46665739390133 
1657	 3.99219966440178 
1658	 5.19791272157041 
1659	 5.14844576871302 
1660	 3.97889791648851 
1661	 2.4553141276749 
1662	-0.746293080892677 
1663	-0.996713193016929 
1664	 0.326138891272089 
1665	 0.397220966696723 
1666	 2.56842680278583 
1667	 1.60680581584694 
1668	-3.65537727233023 
1669	-3.84971328082402 
1670	-2.21591043804355 
1671	-1.288161118816 
1672	 2.61611595729482 
1673	 3.55867212012112 
1674	 1.96563602547881 
1675	 1.20536120248893 
1676	 0.621573932920604 
1677	-1.25400340929425 
1678	-4.39983969658757 
1679	-5.69423616912076 
1680	-6.92402446773735 
1681	-7.70543552289997 
1682	-7.26357630826343 
1683	-8.18990060462529 
1684	-8.39396497938421 
1685	-8.97458580705209 
1686	-8.16508513292429 
1687	-6.08817627235572 
1688	-4.18328735468407 
1689	 0.287092147455108 
1690	 2.28072486179311 
1691	 2.47264240416519 
1692	 2.61978316579753 
1693	 1.38274804171725 
1694	-5.00666158907559E-02 
1695	-1.67518771904844 
1696	-3.40583738727527 
1697	-6.94306773327816 
1698	-8.25535773625346 
1699	-8.45060897508557 
1700	-8.04283998440589 
1701	-5.65996134377985 
1702	-4.09455894040563 
1703	-1.4481521693461 
1704	-1.04230134170015 
1705	-2.44425615307598 
1706	-2.84196216716347 
1707	-4.35487078594498 
1708	-5.22874154958448 
1709	-5.59794129259563 
1710	-5.0719135538041 
1711	-4.96169488697572 
1712	-2.95855095674514 
1713	 1.730553277853 
1714	 4.61009650929283 
1715	 8.58342628353216 
1716	 9.32343803511678 
1717	 8.29601706911066 
1718	 6.41245652477547 
1719	 1.680471765112 
1720	-0.579174977296884 
1721	-3.36747593410018 
1722	-3.49738121189185 
1723	-1.20913648726799 
1724	-0.330602128233647 
1725	 0.994666719170575 
1726	 5.97168324810219 
1727	 6.79796027946857 
1728	 4.63186958269116 
1729	 5.52416667133974 
1730	 1.9434557061785 
1731	-3.30295977004558 
1732	-1.08311865399772 
1733	-1.56146036181325 
1734	-3.28205971108034 
1735	-2.92821728112304 
1736	-2.71089241098109 
1737	-2.2896405241776 
1738	 2.21420257030014 
1739	 2.01108924628093 
1740	-2.39281559110449 
1741	-4.32627294182044 
1742	-8.81906073686306 
1743	-9.72827406311089 
1744	-6.4529177547931 
1745	-6.22463619281119 
1746	-6.29577256298114 
1747	-4.86538927443178 
1748	-3.54856511944658 
1749	-3.09285929331588 
1750	-2.42928073023055 
1751	-1.02222358070747 
1752	 0.27138364440299 
1753	 4.17122425962476E-02 
1754	 1.64379938906509 
1755	-1.66753481263114 
1756	-4.90943814522713 
1757	-7.02856971455062 
1758	-9.68396133760174 
1759	-6.59222635624344 
1760	-5.27867233089097 
1761	-2.89999407718617 
1762	 7.63578045298463 
1763	 23.5386984676983 
1764	 24.6168366083554 
1765	 10.2302589879645 
1766	 10.3057474959777 
1767	 9.95251163677927 
1768	 10.3401729500541 
1769	 19.2638358379235 
1770	 23.9032013830788 
1771	 25.8919810044473 
1772	 12.9340990229049 
1773	 12.1605154283614 
1774	 20.8205940379305 
1775	 23.96976004673 
1776	 28.9811836500785 
1777	 31.2075062378552 
1778	 31.3494142713472 
1779	 22.3206940803967 
1780	 21.55077412671 
1781	 13.2431206675845 
1782	 11.0382640984719 
1783	 4.51742203220108 
1784	-0.127881624012054 
1785	-12.5244160872909 
1786	-0.755014312754625 
1787	 13.0051247247116 
1788	 17.9865432292963 
1789	 7.72422917845033 
1790	-2.25259904812036 
1791	-9.45641730976377 
1792	-24.656782318847 
1793	-27.5599734808346 
1794	-24.4070279761552 
1795	-14.0526947495256 
1796	-4.04492190744188 
1797	-2.83703716243121 
1798	 2.61289173594052E-02 
1799	 6.7917787626631 
1800	-4.84111995786355 
1801	 0.279160445566808 
1802	 11.9592708569767 
1803	 16.6476097357308 
1804	 22.7751483663103 
1805	 22.6775860363926 
1806	 15.9701466558704 
1807	 9.24272900498584 
1808	-1.83899823569851 
1809	-19.7286461321362 
1810	-8.76982055610378 
1811	 2.98379214222033 
1812	 9.84935866089137 
1813	 31.11303458662 
1814	 36.1429864000576 
1815	 26.6076651727514 
1816	 19.2490903102384 
1817	 3.54426672688711 
1818	-2.42281570109227 
1819	-12.085851974811 
1820	-24.7667979124088 
1821	-25.1559347308209 
1822	-13.0615997890836 
1823	-9.80284001527133 
1824	 0.63140137757149 
1825	 2.65989992246938 
1826	-10.6968771262772 
1827	-10.5505072933565 
1828	-3.30754078624669E-02 
1829	 2.04871352377594 
1830	 1.71568156974125 
1831	 6.8546153219517 
1832	 4.43990382304841 
1833	-17.1271330731881 
1834	-18.4200030263701 
1835	-5.94808080593378 
1836	-2.44399353592463 
1837	 7.94370174310262 
1838	 12.079333669226 
1839	 2.35982800616689 
1840	 2.08622047103558 
1841	 3.52603738803132 
1842	 5.89639727232733 
1843	 10.2047037581792 
1844	 24.3635102643419 
1845	 26.9290043373794 
1846	 29.3952154438125 
1847	 26.9949176928418 
1848	 16.8322497598412 
1849	-0.558411041386365 
1850	-3.35921008311445 
1851	-12.6160439898068 
1852	-9.34333380353046 
1853	 13.3414692572374 
1854	 19.957706410769 
1855	 24.8953802234363 
1856	 27.8843308702165 
1857	 28.8384170079694 
1858	 15.748739926827 
1859	 11.4185583654451 
1860	 12.8002549893524 
1861	 4.07408301183076 
1862	-0.756974115358364 
1863	-5.54597766938816 
1864	-15.1795849225964 
1865	-16.1924156390266 
1866	-10.9173948263027 
1867	-6.73195476948771 
1868	 4.01077298202079 
1869	 12.3782538562408 
1870	 9.13960861221115 
1871	 6.64229781541077 
1872	 2.43172516923393 
1873	-8.42797042077192 
1874	-9.14819078135698 
1875	-10.2062348214388 
1876	-16.3471233123062 
1877	-29.5609836019287 
1878	-29.8222332032805 
1879	-26.7934752171866 
1880	-32.6328738216159 
1881	-26.2145041632033 
1882	-20.1395339831509 
1883	-24.106123687774 
1884	-13.1442483118426 
1885	-2.89345067030308 
1886	 3.58821049075031 
1887	 10.6422965696874 
1888	 20.9464333177768 
1889	 13.7557846432122 
1890	 13.4152235748197 
1891	 20.6764043022895 
1892	 15.392226638018 
1893	 16.0184652329051 
1894	 11.0610687722035 
1895	 9.13508370424463E-02 
1896	-10.448566636413 
1897	-13.1655448799769 
1898	-7.56615872824918 
1899	-0.108377960559186 
1900	 10.9312640383323 
1901	 29.6095123547411 
1902	 37.4512594877023 
1903	 27.0082769996799 
1904	 17.3410500243165 
1905	-6.00468970774734 
1906	-12.94225070302 
1907	-7.47495418367184 
1908	-7.00905790989491 
1909	 5.11484453061564 
1910	 6.51543875500033 
1911	-2.17697476505444 
1912	-7.59720523596363 
1913	-13.8790004339087 
1914	-29.1847603830038 
1915	-28.8075008941332 
1916	-14.4523230912129 
1917	-2.72363003466112 
1918	 7.68195574972448 
1919	 10.0369846855573 
1920	-3.71679472261807 
1921	-2.68032497453638 
1922	 4.09648965502978 
1923	 7.61003029516518 
1924	 22.2601315500302 
1925	 24.2235114655984 
1926	 14.5951989698788 
1927	 6.90716809726738 
1928	-1.70752309397414 
1929	-14.9580001298266 
1930	-18.2783146693487 
1931	-18.7572342205416 
1932	-13.0516888158911 
1933	 6.6795798019778 
1934	 13.021643476426 
1935	 21.7547793783566 
1936	 22.8072880087552 
1937	 7.91286153196027 
1938	 2.70476472365124 
1939	 2.63922118522355 
1940	-5.65179674733067 
1941	-4.94684744558203 
1942	 0.647531522345346 
1943	 6.34384667222723 
1944	 17.2408356963184 
1945	 23.4631234942205 
1946	 33.8401412001665 
1947	 34.8102399278382 
1948	 27.2614475633716 
1949	 23.3127415670475 
1950	 11.5084695136952 
1951	 6.44776855161723 
1952	 9.49755795976564 
1953	 7.82864971527231 
1954	 5.57842438550954 
1955	 2.50220148633796 
1956	 3.0596414367271 
1957	 5.86892862753518 
1958	 2.97455103046731 
1959	 0.768960627078114 
1960	-2.14070462265202 
1961	-15.5610372810456 
1962	-19.2420565068533 
1963	-17.062133521892 
1964	-13.1982320986179 
1965	-5.68621113784367 
1966	 6.91029236603221 
1967	 10.3486897103017 
1968	 11.5820786083696 
1969	 15.6527996941696 
1970	 16.461780431924 
1971	 16.8530325197614 
1972	 20.0155376743736 
1973	 20.8717438001556 
1974	 16.3621763766364 
1975	 14.6404551026353 
1976	 16.6068902778705 
1977	 17.5680249966187 
1978	 19.3169451272264 
1979	 18.0249694157563 
1980	 14.1792483543343 
1981	 7.65380816768726 
1982	 2.28168242339552 
1983	-10.6072402470913 
1984	-11.6707271415353 
1985	-3.2185494852694 
1986	-1.61178437500166 
1987	 3.83875572938954 
1988	 7.31371113982361 
1989	 7.80475245204774 
1990	 6.70151629252265 
1991	 6.34425534327228 
1992	-2.03465578019573 
1993	 5.59638429239034 
1994	 13.6888370502337 
1995	 16.9288151110754 
1996	 31.0266160817203 
1997	 32.1728698199824 
1998	 14.0677602767467 
1999	 11.9610142885064 
2000	 22.8032982173355 
2001	 17.6959160408418 
2002	 6.14557491075185 
2003	-1.11624587059524 
2004	-16.5171094324113 
2005	-33.1281191809383 
2006	-28.4084296406774 
2007	-11.7552979482989 
2008	 0.767611523061445 
2009	 13.3244653622206 
2010	 20.1252984954529 
2011	 23.3018666740411 
2012	 20.0671555965532 
2013	 10.8875738523097 
2014	 3.42213261183099 
2015	-13.5209933634262 
2016	-22.2443560464564 
2017	-26.4512605735254 
2018	-30.0295082763674 
2019	-34.6818932016285 
2020	-31.2454896397358 
2021	-22.7166829681674 
2022	-12.5415041356967 
2023	-1.34919393444975 
2024	 0.247807867411608 
2025	 1.36100231007149 
2026	-4.74392627742263 
2027	-8.41185089903349 
2028	-14.7336498360408 
2029	-13.2625354760554 
2030	-8.28314256303324 
2031	-6.58497133610683 
2032	 0.141305649705255 
2033	 2.93438280808332 
2034	-3.95193762330897 
2035	-4.97253986036444 
2036	-7.88311408028322 
2037	-15.3347737610447 
2038	-24.0232686241553 
2039	-36.9929201104534 
2040	-43.8148663873908 
2041	-38.35321482816 
2042	-31.8470315074449 
2043	-11.7984317278512 
2044	-2.45032276632206 
2045	 3.64904665588464 
2046	 6.34505755637206 
2047	 7.1941347461371 
2048	 5.04502923859443 
2049	-2.59364253139839 
2050	-6.38136655980949 
2051	-10.1208858759173 
2052	-14.3954333885457 
2053	-14.6406085238588 
2054	-9.62361180715772 
2055	-12.0092506230311 
2056	-20.414248626717 
2057	-20.6682024875123 
2058	-18.1687453197423 
2059	-11.6148485252159 
2060	 10.0219708335957 
2061	 16.056869843269 
2062	 16.5773138829109 
2063	 16.9746934527133 
2064	 8.95505256129606 
2065	 5.9981747798631 
2066	 10.1429661830132 
2067	 12.5612819157397 
2068	 16.180878873746 
2069	 19.9678955811505 
2070	 22.9834675895586 
2071	 23.7156187887184 
2072	 21.001251234393 
2073	 22.2777732188497 
2074	 19.4763365096137 
2075	 13.552993920275 
2076	 8.74294525575211 
2077	 2.47504821759064 
2078	-0.437693254274818 
2079	-5.65809109909491 
2080	-7.17972421872727 
2081	-3.78386591574368 
2082	 0.149478665173935 
2083	 2.35312487014173 
2084	 14.2733525898529 
2085	 23.0142025087404 
2086	 24.0311535617528 
2087	 19.7894412453165 
2088	 13.9925094694554 
2089	 7.73048940950385 
2090	 6.68711813536332 
2091	 2.47778289623723 
2092	 5.9438132062615 
2093	 7.11527824000748 
2094	-4.29397692468128 
2095	-7.15331018773274 
2096	-9.04474990002197 
2097	-11.847723815589 
2098	-12.5357828627042 
2099	-6.22595188270469 
2100	-15.7058696380101 
2101	-25.8471345462795 
2102	-35.070842989231 
2103	-44.7859394850066 
2104	-45.5262909835795 
2105	-38.0419376246956 
2106	-29.5068748836653 
2107	-21.6848745418115 
2108	-9.02925492276923 
2109	 5.78262375889963 
2110	 11.6491860595677 
2111	 9.87317629973147 
2112	 9.90286557362022E-02 
2113	-7.43214469112388 
2114	-9.38471978703214 
2115	-5.9907676365671 
2116	-3.77086269540268 
2117	 4.20919788394279 
2118	 4.25704415285083 
2119	-1.34555948918948 
2120	-4.91752689883146 
2121	-0.163969567872648 
2122	 2.66476393274583 
2123	 4.21219673366073 
2124	 10.2390038956224 
2125	 3.59204098300922 
2126	-4.96957541721257 
2127	-13.2360918783755 
2128	-20.0855037588222 
2129	-17.2673036164737 
2130	-14.2323582821899 
2131	 1.64457833775503 
2132	 9.16163851912174 
2133	-6.02126932996646 
2134	-17.3948633674499 
2135	-27.9918567522318 
2136	-52.6325557360032 
2137	-58.7437569019338 
2138	-49.3820178022701 
2139	-47.62704894514 
2140	-43.2491852757937 
2141	-39.2542135558879 
2142	-38.9638736492193 
2143	-40.9086408993015 
2144	-37.7135940233269 
2145	-39.683805741039 
2146	-41.4050185456858 
2147	-34.4727564408103 
2148	-24.9983347120295 
2149	-5.26114507777889 
2150	 1.60401963424167 
2151	 13.4468272758298 
2152	 23.0531979894893 
2153	 12.6780565951551 
2154	 17.1381579703406 
2155	 25.372460680669 
2156	 30.4651551906073 
2157	 35.8097209946016 
2158	 40.0649963347879 
2159	 45.0294707909781 
2160	 40.8802856252069 
2161	 34.6335956049791 
2162	 23.6952628199826 
2163	 2.84845336372135 
2164	-9.84248289247281 
2165	-27.7143178807467 
2166	-30.3789456719622 
2167	-23.506737429738 
2168	-19.5322916269117 
2169	-16.9803691647113 
2170	-27.3056184488309 
2171	-34.5267991079666 
2172	-38.2157796647671 
2173	-33.1200922384515 
2174	-28.2142471556729 
2175	-22.2813800809501 
2176	-17.3136041464794 
2177	-7.04483060563095 
2178	 5.92346689980972 
2179	 13.1001211674958 
2180	 21.9901956782874 
2181	 17.382211195666 
2182	 18.279560948826 
2183	 14.8641761887713 
2184	 7.94587011474546 
2185	 1.16151245374682 
2186	-12.1716624055069 
2187	-21.0535817798771 
2188	-26.8839343137844 
2189	-36.8619271053139 
2190	-33.3404274734112 
2191	-23.2978663797367 
2192	-19.823678142092 
2193	-7.16585860603225 
2194	-5.20478179046852 
2195	-3.43451698285755 
2196	 13.5183235819189 
2197	 20.1913038987251 
2198	 29.213210169702 
2199	 41.3967644842642 
2200	 43.0347403645791 
2201	 43.404317892629 
2202	 35.1056490206757 
2203	 19.68278702849 
2204	 3.4379225903039 
2205	-1.87940448985138 
2206	-0.274634084392983 
2207	 6.51592786355525 
2208	 14.222662671051 
2209	 10.0045772824653 
2210	 5.59811723457321 
2211	-5.54454934791104 
2212	-12.6973056502074 
2213	-21.5908430967033 
2214	-22.8400968913382 
2215	-17.8570938996991 
2216	-15.1974185755226 
2217	-11.3863257623894 
2218	-12.4793226320764 
2219	-16.7865747622183 
2220	-16.3377813230547 
2221	-21.5345566346201 
2222	-10.795694714865 
2223	 1.33407865268217 
2224	 6.01298250427612 
2225	 5.45201543393225 
2226	 1.68632498893085 
2227	-16.7064838264995 
2228	-30.4877472975911 
2229	-25.7671971719172 
2230	-20.0796697775148 
2231	-3.90277591464759 
2232	 7.62760843520921 
2233	 5.64278645627513 
2234	-9.8798978317633 
2235	-27.77377168658 
2236	-33.1821938461078 
2237	-32.8258332198146 
2238	-10.6790827969853 
2239	 15.0956418558572 
2240	 35.8892835506718 
2241	 50.9725544970905 
2242	 50.3797802407385 
2243	 54.4393473270746 
2244	 51.464187628147 
2245	 55.286171522946 
2246	 66.2595393483229 
2247	 71.4569634093711 
2248	 83.8471879721966 
2249	 81.48167652237 
2250	 68.0570275858213 
2251	 53.9432172594601 
2252	 25.0302931119609 
2253	 5.02192381937882 
2254	-21.1065911445567 
2255	-25.4758245976417 
2256	-19.7155798292729 
2257	-0.555263569899792 
2258	 27.8039063347057 
2259	 39.5928346646156 
2260	 37.1497677852255 
2261	 24.9559520542131 
2262	 11.3907015574623 
2263	 1.76882762320424 
2264	-6.853364635028 
2265	-12.0512721411031 
2266	-14.1271818059638 
2267	-18.0183724523064 
2268	-22.7240288384939 
2269	-26.2320361060244 
2270	-27.0301627056874 
2271	-24.4931722646372 
2272	-23.5990423450252 
2273	-10.4962614763966 
2274	-1.63693386180099 
2275	-0.116215218170902 
2276	 15.6881359725654 
2277	 20.30372116379 
2278	 16.9368051409392 
2279	 11.4414295981291 
2280	-5.60525449310289 
2281	-18.7968960084641 
2282	-27.6944372862701 
2283	-31.7718418393494 
2284	-33.3200360822045 
2285	-28.9056109906575 
2286	-26.1553480204888 
2287	-27.2301573366384 
2288	-16.3866167565712 
2289	 4.48942806036663 
2290	 11.8843748443647 
2291	 21.1373509001823 
2292	 24.1442688415051 
2293	 17.912663095301 
2294	 15.3448087928792 
2295	 12.673423059289 
2296	 15.1056539469083 
2297	 14.1324928555593 
2298	 17.6321428541794 
2299	 32.367572458331 
2300	 36.2468969791106 
2301	 37.1023761968063 
2302	 33.6052139077932 
2303	 23.9903395479314 
2304	 15.4639188631454 
2305	-1.51747112672689 
2306	-5.85276324760014 
2307	-3.87275023617272 
2308	-3.50243437578613 
2309	-1.53439442953198 
2310	 15.5991725352813 
2311	 16.8424905228002 
2312	 16.8601942124843 
2313	 22.9984612199301 
2314	 11.4204866782502 
2315	 4.32892313899032 
2316	-1.44769814635552 
2317	-7.10366595584957 
2318	-7.68978714706217 
2319	 1.72955484972324 
2320	 6.73841914694606 
2321	-0.546859176212039 
2322	 2.4840818056729 
2323	-8.85836937580103 
2324	-21.0439047119166 
2325	-12.1247755108104 
2326	-14.9998513394551 
2327	-15.7823721609719 
2328	-7.61890117167221 
2329	-12.9545381864532 
2330	-14.5485806930992 
2331	-1.23717953411038 
2332	 8.84410090834595 
2333	 28.050181483772 
2334	 48.2643307300679 
2335	 45.4916407228034 
2336	 45.0532189158818 
2337	 36.7487248613276 
2338	 21.0249419935979 
2339	 17.5431545074171 
2340	 15.9543268682288 
2341	 13.6124467856367 
2342	 11.567336484142 
2343	 10.6441499371756 
2344	-2.7700042685932 
2345	-16.8246914686083 
2346	-21.5507114706177 
2347	-32.7504313145933 
2348	-34.124097752091 
2349	-20.725499342126 
2350	-16.8051172962303 
2351	-21.0231851033839 
2352	-20.5178348685129 
2353	-25.0762851549516 
2354	-29.31317681749 
2355	-19.1661786813829 
2356	-17.4837344846872 
2357	-26.3097077803563 
2358	-32.0476838879895 
2359	-43.0072676677964 
2360	-42.9107301492941 
2361	-32.6403130609021 
2362	-19.3555643134628 
2363	 12.6160670730324 
2364	 30.3514900941848 
2365	 27.5515949004485 
2366	 28.0948510384215 
2367	 17.7170500755734 
2368	 7.72705824222597 
2369	 9.06726500760364 
2370	 10.184826397647 
2371	 10.3197784707121 
2372	 10.2328941597421 
2373	 13.2091557677524 
2374	 14.3165204718221 
2375	 8.04162112231106 
2376	 9.38389418051252 
2377	 11.8633089701652 
2378	 7.80635822680272 
2379	 10.400357592647 
2380	 9.7622245047142 
2381	 8.44738956316733 
2382	 12.7815155360057 
2383	 15.3674045649192 
2384	 21.3611128564022 
2385	 25.5715620679376 
2386	 23.9945495416134 
2387	 23.4854074686198 
2388	 18.3442194346016 
2389	 7.97018801642426 
2390	-3.90333053185384 
2391	-18.4757233285174 
2392	-30.301764974343 
2393	-35.3147795865147 
2394	-26.6098480320624 
2395	-7.0817157470635 
2396	 13.3551032926084 
2397	 28.3786268769174 
2398	 25.5653244928612 
2399	 8.53507633655288 
2400	-8.97144693510357 
2401	-18.6314838315188 
2402	-12.2312698057238 
2403	 3.37453723639956 
2404	 19.2140067570539 
2405	 25.5492521715785 
2406	 16.2892484091904 
2407	 1.72253188701009 
2408	-15.1654127391961 
2409	-30.3918900343996 
2410	-30.3287295598678 
2411	-30.0130969569786 
2412	-27.6559828510367 
2413	-18.4935909348135 
2414	-22.2034269015632 
2415	-6.88658701258116 
2416	 9.93736512849921 
2417	 13.7111349283586 
2418	 26.8707409480004 
2419	 25.8807986060546 
2420	 18.2136977342108 
2421	 16.2102888736049 
2422	 19.3424059737851 
2423	 18.8198078697541 
2424	 15.1902586484415 
2425	 16.36503495674 
2426	 15.8359417570746 
2427	 7.86786000985043 
2428	 3.38156787268952 
2429	 6.12706350829709 
2430	-1.95534394647267 
2431	-6.29159966677903 
2432	-5.48276714924199 
2433	-6.44938889412047 
2434	-8.59866275238812 
2435	-6.40982005138582 
2436	-5.6624372370099 
2437	-20.015009800967 
2438	-22.2808665712149 
2439	-23.5586428746248 
2440	-24.1217701775671 
2441	-18.5351242616236 
2442	-25.4921122854015 
2443	-28.0789126749726 
2444	-27.2325862026402 
2445	-17.3692674532164 
2446	-3.03472783930305 
2447	 2.79031468825119 
2448	 12.8224169467237 
2449	 17.192482657047 
2450	 19.1984314256195 
2451	 23.4029504702194 
2452	 16.2667243972867 
2453	 3.27505977467114 
2454	-7.8454132929996 
2455	-18.7208024585953 
2456	-20.3298017189801 
2457	-16.1793752729466 
2458	-19.3499260082971 
2459	-18.7584050233448 
2460	-21.2961695029099 
2461	-23.1020124592187 
2462	-18.629025206639 
2463	-18.7817368745816 
2464	-17.1158110628966 
2465	-20.1421606168039 
2466	-15.0677878429017 
2467	-4.02526285151097 
2468	 6.00230381457543 
2469	 3.93363704641579 
2470	 2.59586266254061 
2471	 1.82143006734539 
2472	 1.17063528109091 
2473	 5.36531872216871 
2474	 5.57813772946205 
2475	 11.5263540271518 
2476	 11.0276911797085 
2477	 11.0688066112163 
2478	 15.3206846824935 
2479	 11.6928618688222 
2480	 10.1226046346206 
2481	 11.5311116788274 
2482	 9.7671911783446 
2483	 12.8866528124672 
2484	 12.5261485716983 
2485	 5.02325881474111 
2486	 1.6765122316047 
2487	-4.19598755426927 
2488	-4.85493633807173 
2489	 2.21419721873511 
2490	 2.73506357161904 
2491	-6.35103641551843 
2492	-11.8674118205035 
2493	-23.5563337664332 
2494	-29.5587289830226 
2495	-20.6910044554765 
2496	-22.9004590950531 
2497	-14.5637409461132 
2498	-9.29757766358634 
2499	-13.9131261743885 
2500	-14.8332065682588 
