Wavelength	3mm_blackPA00000.asd
350	-1.80992642478129 
351	-2.67532668273903 
352	-1.92804259408556 
353	 0.527612312994646 
354	 0.469735019096648 
355	-0.89683263720889 
356	-1.52451557675629 
357	 0.397787858042226 
358	 1.05155702540833 
359	-1.54115085481186E-02 
360	-0.421390317882292 
361	 0.305895856184854 
362	 0.972548706610298 
363	 0.357237366678007 
364	-1.00611466235397 
365	-1.70809869624839 
366	-1.05904750989483 
367	 0.867490713345202 
368	 0.316351775953908 
369	-1.38189928821973 
370	-1.35624786616472 
371	 0.517913428168546 
372	 1.22878536629584 
373	-2.74907566770237E-02 
374	 0.819970802666071 
375	 0.26097178359801 
376	-1.12008702647279 
377	-0.948563145207612 
378	-0.447422035338015 
379	-0.22063933603419 
380	-0.405597386402542 
381	 0.104299859856565 
382	-0.589360047602991 
383	-1.68341840351535 
384	-9.25312164206944E-02 
385	-0.270008779450919 
386	-1.08782249306272 
387	-0.671919461902411 
388	-0.907341313566157 
389	-0.805952275303566 
390	-0.216913618166416 
391	-0.520283059366488 
392	 0.157497017718172 
393	 0.637280444855503 
394	-0.968452857301234 
395	-0.441123398267945 
396	 7.84489126363176E-02 
397	-0.723782632900528 
398	 0.272811383639958 
399	-0.431050078076561 
400	-1.56929258369974 
401	 1.58508768281419 
402	 1.69998765812504 
403	 0.202724150187238 
404	-0.124725286354936 
405	-0.899630589794236 
406	-0.53158049241541 
407	 0.719387901577824 
408	-0.638721930183697 
409	 0.268217229561611 
410	 1.87495237262176 
411	 0.386702131078177 
412	-0.886666542955003 
413	-0.780159120889715 
414	 0.49369718408115 
415	-0.290366532288606 
416	-0.48039865610888 
417	 0.103964853225353 
418	-0.472951985151893 
419	-0.320550292116766 
420	 8.82429288365955E-03 
421	-0.288753936194455 
422	 0.524230690630956 
423	 1.31450473820328 
424	 1.11303754261108 
425	-0.814791000835221 
426	-1.47654223433584 
427	-0.633811272323639 
428	 0.352057394260108 
429	 0.107787020739978 
430	 0.581010669682414 
431	 2.71171352241262 
432	 1.15247149859291 
433	-0.314462334151732 
434	-0.537756045766672 
435	-1.9306170672748 
436	-1.98623963644767 
437	-1.16787980931073 
438	-0.908137856918599 
439	-0.393075685031485 
440	 0.289850588804041 
441	 0.786071245207042 
442	 0.213022924715123 
443	-0.551460303107988 
444	-0.901071890148033 
445	-0.424453656389529 
446	 0.568626359593221 
447	 1.36677744187542 
448	 1.21378702757502 
449	-0.266046074925224 
450	-0.774776510853313 
451	 0.461251235051849 
452	 0.681585654319128 
453	 0.650726929254142 
454	 0.223218711155354 
455	-1.18688477037863 
456	-2.0845794622682 
457	-1.61053792777135 
458	 8.08286470778665E-02 
459	-1.08343077844002 
460	-1.77364729038058 
461	-0.670876515633286 
462	-0.594020543380725 
463	-0.392837925423983 
464	-0.310252020635882 
465	-1.11692836333734 
466	-1.32898857470808 
467	-0.532738131319792 
468	 0.739424435744404 
469	-0.939673843034514 
470	-2.43871896022866 
471	-2.41079137349435 
472	-2.42013305903971 
473	-1.46259897761618 
474	 0.137925554090983 
475	 1.38171545384771 
476	 1.06780668088054 
477	-0.139908640067462 
478	-1.18328974612465 
479	-0.92281933846018 
480	-0.935965426689438 
481	-1.47173807886352 
482	-0.878550106258764 
483	-0.254612418480928 
484	-0.269943085514882 
485	-1.29004514637996 
486	-1.56188426234287 
487	-1.16116257985133 
488	-0.632784128052545 
489	-0.963425201096274 
490	-1.50065042047034 
491	-1.75044171258766 
492	-1.35830015052287 
493	-1.08073466806438 
494	-0.905274700727349 
495	-0.559395835936707 
496	-0.578705295833927 
497	-1.10488105161116 
498	-1.96080623973902 
499	-2.18064308837531 
500	-2.34676277301909 
501	-2.34764109440439 
502	-1.05654229775188 
503	-0.435336024019149 
504	-0.208105921762265 
505	 0.59897036339304 
506	-0.582207773919077 
507	-2.06912331004732 
508	-2.17266095043048 
509	-1.24164022049887 
510	-1.40309456758928 
511	-2.53624435984149 
512	-1.38100091105139 
513	-0.927374651165752 
514	-1.25033277359979 
515	-1.32423931651007 
516	-2.24790827867645 
517	-2.05380330005327 
518	 0.163901225317609 
519	-0.121827748259985 
520	-1.11728336870476 
521	-1.7381502175298 
522	-2.01151565453068 
523	-1.20681158264683 
524	-0.469724044885726 
525	-1.67080169524482 
526	-2.05657629526387 
527	-1.95717326550071 
528	-2.02214836954339 
529	-1.74044059359429 
530	-1.51171683257251 
531	-1.52284924952017 
532	-1.70590811191446 
533	-1.04381035107866 
534	-0.222961944884033 
535	-0.831959305252672 
536	-2.01533058177936 
537	-3.04426937345805 
538	-3.33708177612453 
539	-2.9847085192949 
540	-1.88268396066242 
541	-0.459021077154358 
542	-8.25074914653232E-02 
543	-1.0162944883555 
544	-2.68990959863815 
545	-3.79854392055 
546	-1.9545000903485 
547	 1.74317386616264E-02 
548	-1.04220127695855 
549	-2.78710796024828 
550	-2.7372538172632 
551	-0.772422984669952 
552	-1.82548229589663 
553	-2.24047980633141 
554	-1.54296452444799 
555	-1.40007890493215 
556	-1.94763973784372 
557	-1.87507341759998 
558	-0.291969080067915 
559	-2.42487132906129 
560	-4.64418315200971 
561	-4.1508114634898 
562	-1.54704029816215 
563	-0.8408410485096 
564	-2.21883450033687 
565	-2.23508821416096 
566	-3.03683039665663 
567	-3.13221736841043 
568	-0.698132584379861 
569	-1.48989455737925 
570	-3.27735081874527 
571	-3.63851277266996 
572	-2.4952431603804 
573	-1.69840506945705 
574	-2.06368554150194 
575	-3.42048089393746 
576	-2.95559310820817 
577	-1.3860722885396 
578	-1.00739567268734 
579	-2.55672615832892 
580	-3.41167015227925 
581	-1.98071609191165 
582	-2.83308549473848 
583	-2.44437077363426 
584	-0.168850107155776 
585	 0.102509725429476 
586	-1.0197604325025 
587	-2.41029860903119 
588	-2.4170633106024 
589	-1.49590816783218 
590	-0.104209231165792 
591	 0.971236572409633 
592	-0.46340940824499 
593	-1.68739690210032 
594	-1.73331679609828 
595	-3.69272200902715 
596	-3.95985973247149 
597	-2.55589668703555 
598	-1.87840036619997 
599	-1.17728736098548 
600	-1.02500836354852 
601	-1.96345934275407 
602	-2.79681264956565 
603	-2.51981961125664 
604	-1.28722165185381 
605	-2.03588555948398 
606	-2.49166347652677 
607	-1.9531577885195 
608	-0.940390790653979 
609	-2.22140602392669 
610	-3.74834342563991 
611	-2.32563727269058 
612	-1.04978633858331 
613	-0.954373794661457 
614	-2.07165630030491 
615	-2.42589224470538 
616	-2.36315015902986 
617	-2.30381108439727 
618	-2.90962309132885 
619	-2.39511901284037 
620	-1.30847716436136 
621	-1.18423885096834 
622	-1.86634470198981 
623	-2.36779275767882 
624	-1.99451913572771 
625	-1.67494198944359 
626	-2.17560174333454 
627	-3.0840710125631 
628	-1.79638373955292 
629	-1.39524502399015 
630	-1.88181413997174 
631	-1.69688762444518 
632	-1.97242308006708 
633	-2.24281103797622 
634	-1.91464765191882 
635	-1.48701654415214 
636	-0.978943064543254 
637	-0.74458161962524 
638	-2.11141631448643 
639	-3.28397950090747 
640	-3.52600108637227 
641	-2.78559922752328 
642	-2.07072814498933 
643	-1.57891271387103 
644	-1.27995963089395 
645	-1.40116635701897 
646	-1.77863861803494 
647	-2.28804251346547 
648	-3.24179835761648 
649	-2.64962578945737 
650	-1.00398120066434 
651	-1.31967134368238 
652	-1.94685538418246 
653	-2.58837067108732 
654	-3.22929362710819 
655	-2.91471506978814 
656	-2.37372069167074 
657	-2.22561094805752 
658	-1.96594932933257 
659	-1.91512325187389 
660	-2.08538601605002 
661	-2.10800660365316 
662	-1.81414498241639 
663	-1.57579858091025 
664	-1.94828840091056 
665	-1.81894145028457 
666	-1.91115006278144 
667	-2.68211154360531 
668	-2.25136893283972 
669	-1.50839379559571 
670	-1.35173994352215 
671	-3.03238573078777 
672	-2.87088546344504 
673	-1.74797256960441 
674	-2.9026149806981 
675	-2.16536167479825 
676	-1.23116586210358 
677	-2.11569786115632 
678	-1.94373518550937 
679	-1.44045328969289 
680	-1.34705753841721 
681	-2.36238335969419 
682	-2.0450128909131 
683	-1.14090289123643 
684	-2.563649969196 
685	-2.51844142391561 
686	-1.99726000543935 
687	-2.7182302075037 
688	-2.78792702173353 
689	-2.38408574305849 
690	-2.01921043931836 
691	-2.88428521702727 
692	-2.13282994808264 
693	-0.463838045388189 
694	-1.60326193111037 
695	-2.2596514624312 
696	-2.39148982161532 
697	-2.85655363907748 
698	-3.95438104472545 
699	-3.96311346283486 
700	-2.43724542592686 
701	-2.84765620062988 
702	-2.92993821593202 
703	-2.48290949832522 
704	-3.32085783245946 
705	-2.60594571948359 
706	-1.46913624828413 
707	-2.09230120015615 
708	-2.6119020892811 
709	-2.23316690613339 
710	-1.11594135446167 
711	-1.83274153651552 
712	-2.64401903642227 
713	-2.79311369484626 
714	-2.55759208504335 
715	-1.43510819226274 
716	-1.15649127246339 
717	-3.6658002553462 
718	-3.22931014634391 
719	-1.5293541753241 
720	-0.666327679502355 
721	-0.14890056701245 
722	-1.17740116278246 
723	-3.15116495725902 
724	-3.1133417258543 
725	-2.16745481732592 
726	-1.52576465285392 
727	-2.31239979559547 
728	-1.6382415018259 
729	-1.5249272124278 
730	-3.12286724107149 
731	-1.67006048732372 
732	-1.37128945429201 
733	-2.90568084537978 
734	-2.11621963411105 
735	-1.53425068308107 
736	-1.57325023241015 
737	-1.88959089605045 
738	-2.79823420721557 
739	-3.20711877822833 
740	-2.43910172170526 
741	-1.90843189070659 
742	-1.44482058975825 
743	-1.22023342490927 
744	-1.99664930470874 
745	-2.38993524792875 
746	-2.77830074568234 
747	-4.06596344021874 
748	-3.61186626045608 
749	-2.80468425611169 
750	-2.90923142903843 
751	-2.27912753041667 
752	-2.62893096557668 
753	-3.64245722699427 
754	-2.12758226816376 
755	-1.84514059209039 
756	-2.11799707516036 
757	-0.838097233122396 
758	-1.37876128476282 
759	-2.50985401745628 
760	-2.74808932952482 
761	-1.90108319676004 
762	-1.85566936484657 
763	-2.87629432351681 
764	-3.34333411679123 
765	-2.99254261582543 
766	-1.83132678949351 
767	-0.407570063917516 
768	-2.0954900051572 
769	-4.3100959249308 
770	-4.67842908698811 
771	-3.49870292694321 
772	-3.54792781541604 
773	-4.50610122025008 
774	-2.7501017852149 
775	-2.13537326174303 
776	-2.52425369711573 
777	-2.48118685489348 
778	-1.15820472298979 
779	-1.1337333020156 
780	-3.10474382546032 
781	-2.0038697776601 
782	-1.87963821207906 
783	-3.16253513366561 
784	-3.41110135097059 
785	-3.20560366259207 
786	-3.16534850273646 
787	-3.56238021689801 
788	-1.96694049663717 
789	-0.892134940062227 
790	-1.59992996656913 
791	-2.27735956751209 
792	-2.68094474447696 
793	-2.46679284760425 
794	-1.40707548078796 
795	-1.90057617852402 
796	-2.16787468068739 
797	-0.748226019332653 
798	-2.12702582289655 
799	-3.07781091872316 
800	-2.39419166367256 
801	-2.51880298330211 
802	-0.943118759394599 
803	 0.660986413188602 
804	-0.861651262610143 
805	-1.30292771779014 
806	-1.6555716811199 
807	-2.90327171729831 
808	-3.38404040991534 
809	-2.99622537456112 
810	-2.05418865158651 
811	-1.32167856439013 
812	-1.39154447995495 
813	-2.04568528986268 
814	-2.61661932559703 
815	-1.73349674444501 
816	-1.68834212871518 
817	-3.16865569888719 
818	-2.45863875926481 
819	-1.50619382393353 
820	-1.45485190401013 
821	-2.95139668897605 
822	-3.06695845141312 
823	-2.02805466838456 
824	-1.09512387931918 
825	-2.71869098754635 
826	-2.89594218123677 
827	-1.11071898429069 
828	-2.24702028087974 
829	-3.30827514470927 
830	-3.36886115323662 
831	-2.45979343232789 
832	-2.77034441667032 
833	-3.06500070726837 
834	-2.67783304512802 
835	-3.92176661944078 
836	-3.97581785009119 
837	-2.38097296496672 
838	-0.604643475417416 
839	-1.54705117551339 
840	-3.01108470721637 
841	-2.3674383400153 
842	-1.66566971922421 
843	-2.51072146633093 
844	-4.59377984715632 
845	-4.79603367518415 
846	-3.26263557133281 
847	-1.61194667612646 
848	-1.96700926754092 
849	-2.73923431388929 
850	-3.20315755129337 
851	-3.08991337581067 
852	-2.93341264128493 
853	-2.82255985522964 
854	-2.68307726018918 
855	-2.30465384716217 
856	-1.71458668700658 
857	-1.79429224745537 
858	-2.88623479906531 
859	-2.41393312684102 
860	-1.50349997508203 
861	-1.21467400964451 
862	-2.5192080952692 
863	-2.8098620788175 
864	-1.96627913822755 
865	-0.982777675803708 
866	-1.88678828745362 
867	-1.8182353149599 
868	-6.60961309184576E-02 
869	-1.1647058584458 
870	-2.6922567923315 
871	-3.15503770146459 
872	-1.70457823649104 
873	-2.18831894219893 
874	-3.18597807079845 
875	-3.08350481387577 
876	-2.04151709223982 
877	-2.03069621879226 
878	-2.75335547659112 
879	-2.12452398482651 
880	-3.10808335521746 
881	-3.25549486532895 
882	-0.764430834273156 
883	-1.44510748339933 
884	-2.80941413554589 
885	-3.24174335370509 
886	-2.32871337461785 
887	-1.45122602089807 
888	-1.50670595697737 
889	-2.78148463746183 
890	-3.46223252178814 
891	-3.03134288961579 
892	-1.81812224686059 
893	-1.28344811409333 
894	-1.13711521559202 
895	-1.62268221557778 
896	-2.8679780262663 
897	-3.10880043185205 
898	-3.30754483104625 
899	-3.61706909539417 
900	-1.80316794235484 
901	 0.202879721335639 
902	 0.389839862664663 
903	-2.63317341056591 
904	-2.60096918170856 
905	-1.55814630318809 
906	-1.41351426414218 
907	-0.749148459474919 
908	-1.5023953255044 
909	-2.96118364618197 
910	-3.00346963633035 
911	-3.44818952989314 
912	-3.22286097726442 
913	-1.99875435301528 
914	-2.72812677180157 
915	-3.25803728523269 
916	-3.02368393897133 
917	-2.51523385124661 
918	-1.72216454710986 
919	-1.84747568867693 
920	-3.07644941380855 
921	-2.01043202825133 
922	-1.13210312186053 
923	-1.05656713246237 
924	-1.10032975750434 
925	-2.74127969293742 
926	-2.82259442393892 
927	 0.167675707067258 
928	 0.456862237869307 
929	-1.21497781575694 
930	-2.86981158753613 
931	-1.8086605973627 
932	-2.61971804439956 
933	-3.17261558772469 
934	-1.75237988787944 
935	-1.76783801126894 
936	-1.79442636060303 
937	-1.32849635126794 
938	-0.626267505589909 
939	-1.8503722340962 
940	-3.05435679844439 
941	-2.66473225569633 
942	-2.26931081005364 
943	-1.34706150387408 
944	-0.832507948804075 
945	-2.29886283036932 
946	-3.026722539035 
947	-2.52502639066649 
948	-1.35164203834381 
949	-1.64316789785139 
950	-2.31366965211412 
951	-2.63938708787468 
952	-2.20730741217295 
953	-2.34126792493374 
954	-2.44772625013675 
955	-2.07529693020964 
956	-1.50800262555138 
957	-1.40841705355725 
958	-2.07151286578929 
959	-3.3019854284852 
960	-2.94406782643677 
961	-2.55697231810067 
962	-2.76222958442598 
963	-2.01274580629816 
964	-1.89292873644095 
965	-2.53182325017962 
966	 3.25810048746077 
967	 1.14631363538173 
968	-1.48652204288414 
969	-2.74435077345035 
970	-1.91817120110002 
971	-3.03886207552335 
972	-6.38497468308947 
973	-5.83108355111451 
974	-2.52961470848737 
975	-1.71959830929417 
976	-2.89687073392386E-02 
977	 1.44761714454964 
978	 1.147703168095 
979	-1.17026753948986 
980	 0.174125685530169 
981	 4.04522054652189 
982	 5.42644958566211 
983	 6.11632031565603 
984	 6.05427215985982 
985	 3.2218782047218 
986	 1.33564707520572 
987	-1.10905680332377 
988	-2.34758715873184 
989	-4.3294593031187 
990	-4.38816841426561 
991	-1.2798377713429 
992	-1.91664283784196 
993	-4.35807083264925 
994	-4.31285087366032 
995	-3.8319294244875 
996	-2.9900363592694 
997	-0.599604002164945 
998	 2.07221232045121 
999	 3.51557963644626 
1000	-0.84882385423575 
1001	-5.29072182080547 
1002	-2.80566142954781 
1003	-1.43169379114519 
1004	-0.80434034077934 
1005	 0.526218408853166 
1006	 5.21014809283095 
1007	 4.22311464232783 
1008	-0.684744708504054 
1009	-3.46324171420211 
1010	-5.28870285131558 
1011	-7.72125534502944 
1012	-8.03246573197429 
1013	-7.08117369692097 
1014	-6.00881951189812 
1015	-4.75775160505842 
1016	-3.57671513242846 
1017	-0.826921210478493 
1018	-0.381545877578695 
1019	-0.854918810507244 
1020	-1.70505515257242 
1021	-5.33998576855681 
1022	-5.46843357802805 
1023	-5.35469451679308 
1024	-5.12218869142652 
1025	-5.30082342513656 
1026	-1.05231127805253 
1027	 0.168055253430619 
1028	-2.43390139818712 
1029	-2.44910588430597 
1030	-2.31645909832431 
1031	-3.76515566273686 
1032	-2.03092408173654 
1033	 0.978560502322388 
1034	 1.71133983484921 
1035	 4.28656062656616 
1036	 6.1975219131537 
1037	 3.53896680435983 
1038	-6.70381567870689E-02 
1039	-4.36543008127388 
1040	-6.39380248707773 
1041	-6.07432663249099 
1042	-6.04873082258513 
1043	-4.99668905292338 
1044	-3.84272841323695 
1045	-3.69136591761167 
1046	-4.34057245328098 
1047	-1.15852861084425 
1048	-1.21796785030159 
1049	-2.38043596137149 
1050	-3.56379265807265 
1051	-5.52112056726453 
1052	-4.79676641903978 
1053	-5.12628860556001 
1054	-3.91448135637732 
1055	-3.33335585820569 
1056	-3.54239267285636 
1057	-2.40053086825001 
1058	 1.72078383046432 
1059	 2.29775999526644 
1060	 1.25710693713603 
1061	 0.738676187243905 
1062	-0.424384376349358 
1063	-3.22128576095871 
1064	-4.43258159239859 
1065	-4.57122304504986 
1066	-5.94408122907078 
1067	-2.69401245612087 
1068	-0.131494726138673 
1069	 1.41135245257339 
1070	 2.66279884753663 
1071	-0.110854507611788 
1072	-1.2886143786631 
1073	-2.71266638338908 
1074	-3.8282886506476 
1075	-5.26635751271466 
1076	-4.39380327607814 
1077	-1.2143573672169 
1078	-0.730633997268672 
1079	-0.150007010513512 
1080	 0.687728714194123 
1081	-0.281044959744646 
1082	-1.10678538251264 
1083	-1.42009373549058 
1084	-0.363755670165254 
1085	-2.80200397197432 
1086	-3.50978155644561 
1087	 0.477260572491724 
1088	 1.1874630439154 
1089	 1.1763651835019 
1090	 0.49603034313794 
1091	-0.738992868455666 
1092	-5.2569847401621 
1093	-5.58786931203067 
1094	-3.74119920023958 
1095	-2.88583100476451 
1096	-0.436137197055175 
1097	-0.299169239737102 
1098	-1.59468681946953 
1099	-2.33401889433329 
1100	-4.28838397851855 
1101	-4.792401109258 
1102	-5.22055446936398 
1103	-4.26316218385957 
1104	-7.67415231305506E-02 
1105	 1.12103956618571 
1106	 0.785293439005377 
1107	-1.19519256602936 
1108	-4.46357209985812 
1109	-6.42124807081568 
1110	-7.04447924688472 
1111	-5.35213248393979 
1112	-4.13150670680479 
1113	-1.3956373709914 
1114	-1.73313865389817 
1115	-3.17925943284837 
1116	-3.72655767754126 
1117	-6.99471702260515 
1118	-7.46190278025339 
1119	-5.24116251753409 
1120	-4.04834347574592 
1121	-2.01141470751502 
1122	-1.04954379792757 
1123	-0.60626206824161 
1124	-0.168781689549588 
1125	-2.06006705738525 
1126	-0.250471768158345 
1127	-0.546443764379888 
1128	-1.21598568228104 
1129	-1.25857602431201 
1130	-1.24608357756925 
1131	-1.58490747678872 
1132	-2.47912248924607 
1133	-1.10321168217476 
1134	 1.56494731527497 
1135	 2.64481216107176 
1136	 6.82387855347127 
1137	 6.1578706888224 
1138	 0.240171396916718 
1139	-2.5522576948114 
1140	-8.17470950743172 
1141	-9.27862749614772 
1142	-4.8046269369304 
1143	-3.87263281297182 
1144	-1.11962199871858 
1145	-0.939487170208818 
1146	-5.34292944574855 
1147	-7.91215041895119 
1148	-10.2913069412506 
1149	-13.3684948139114 
1150	-14.2024600069325 
1151	-13.6070579728617 
1152	-13.327177933676 
1153	-12.8638949906958 
1154	-10.3180050645297 
1155	-5.17795342246473 
1156	-3.63548502953629 
1157	-1.64197019878619 
1158	-0.796233086244873 
1159	-3.71772035220508 
1160	-4.35112586796711 
1161	-3.16541152460607 
1162	-3.337701495095 
1163	-5.34604685408867 
1164	-5.19568659084236 
1165	-3.2767599079134 
1166	-2.52688177653862 
1167	-1.0918553627837 
1168	-0.338675160143178 
1169	 1.18563551873854 
1170	 1.63534156240501 
1171	 2.83969275537824 
1172	 5.96905378105922 
1173	 6.5317022829955 
1174	 5.02198908424781 
1175	 5.30025886643298 
1176	 5.63260331469433 
1177	 5.89173531821396 
1178	 8.16623758173993 
1179	 7.02502929832433 
1180	 3.75105817403243 
1181	 0.755132340698871 
1182	-5.3307994332348 
1183	-8.47550480321983 
1184	-10.7775287289333 
1185	-11.5423956973452 
1186	-9.47476393118451 
1187	-8.71240923698288 
1188	-7.90836540222127 
1189	-6.86526604974638 
1190	-6.29576754755807 
1191	-5.31447445381726 
1192	-3.53136015904417 
1193	-1.27563691930966 
1194	-1.03824691527963 
1195	-1.01703083290208 
1196	-1.18273079626713 
1197	-1.82822365414584 
1198	-2.65267620238895 
1199	-5.09048693739758 
1200	-4.19999893275619 
1201	-1.68278074132155 
1202	-0.758071724819241 
1203	 2.67240653191092 
1204	 3.11700457755893 
1205	-0.678906471108286 
1206	-0.258689947081351 
1207	 2.0229086645625 
1208	 3.73763314831952 
1209	 7.67095574998033 
1210	 8.67920391064222 
1211	 8.06367314647576 
1212	 6.83941854326487 
1213	 3.48710435258061 
1214	 3.93898821097844 
1215	 4.47699292073551 
1216	 4.87886431082275 
1217	 3.84374003060941 
1218	 2.1048766745545 
1219	 1.4391147953746 
1220	-1.52610694242469 
1221	-2.67272932477653 
1222	-2.15619563351974 
1223	-2.35852796608326 
1224	-2.97891250679832 
1225	-2.16310992082347 
1226	 0.491335313538039 
1227	 1.09277357207551 
1228	 1.01044655059707 
1229	 0.410032639512737 
1230	-1.81921222038423 
1231	-2.78590248848369 
1232	-2.87335752158324 
1233	-3.06047281466813 
1234	-3.25938460549423 
1235	-3.00708797318925 
1236	-3.19365369939597 
1237	-2.4625385663731 
1238	 2.42270229199569 
1239	 2.85864261499754 
1240	 1.49825982671613 
1241	 3.75999833875148 
1242	 2.13935275020029 
1243	-1.69865647687808 
1244	-0.26575782320585 
1245	-1.66665183531054 
1246	-2.1107638377496 
1247	 1.82553476872162 
1248	 2.79738336330433 
1249	 4.77905873743713 
1250	 4.70909661333287 
1251	 1.68893085035237 
1252	 0.480303725700294 
1253	-1.3602359189284 
1254	-1.52392724452651 
1255	 0.240901420255652 
1256	 1.57755467484244 
1257	 4.90724854163636 
1258	 4.32254141395215 
1259	 0.395404522195423 
1260	-0.676936154293842 
1261	-2.63909551694343 
1262	-3.38993213064718 
1263	-1.77790420579724 
1264	-1.57134115491295 
1265	-4.24132607563272 
1266	-8.14918543223632 
1267	-8.91231031262589 
1268	-7.5044015387564 
1269	-6.4776794147149 
1270	-5.90662411725986 
1271	-5.60444823337405 
1272	-7.4830546668715 
1273	-7.16630031651882 
1274	-4.45786762329911 
1275	-5.98943592660063 
1276	-7.69963122320631 
1277	-8.47618637310589 
1278	-9.27319441965887 
1279	-7.61988335629571 
1280	 0.489759317931925 
1281	 1.56667414487315 
1282	-0.369021094037005 
1283	-0.645800143615506 
1284	-5.02603713834013 
1285	-6.68104545983207 
1286	-5.152178970704 
1287	-5.06294323885193 
1288	-5.31791500381127 
1289	-5.0714146876241 
1290	-5.64460582850889 
1291	-5.16377786152335 
1292	-5.0897215930524 
1293	-4.15532780383464 
1294	-3.03698756490641 
1295	-4.54063050750102 
1296	-7.26346248302189 
1297	-9.16414893348498 
1298	-10.1911558379419 
1299	-9.14285533791717 
1300	-7.08050477148165 
1301	-5.51913069161436 
1302	-2.26467104939665 
1303	 0.381128669974023 
1304	 0.232535213765954 
1305	-0.360191541964935 
1306	-0.410934636533227 
1307	-0.184043788470272 
1308	 0.476222383788158 
1309	 0.919839321460011 
1310	 0.51582842456653 
1311	-0.691002946018032 
1312	-1.53372726399366 
1313	-2.36767328423401 
1314	-1.96602612063534 
1315	-0.750008454669624 
1316	 0.170329281135578 
1317	 2.54985379263312 
1318	 3.25312447497592 
1319	 3.35123850841903 
1320	 2.41684807203102 
1321	-0.751464768368441 
1322	-2.76300869204935 
1323	-3.28848823307003 
1324	-4.98593385762634 
1325	-3.27835983582592 
1326	-1.07766914396229 
1327	-1.15382666678987 
1328	 0.558966142068761 
1329	 3.04965013673441 
1330	 4.15199483642323 
1331	 5.65848656923623 
1332	 6.24377436380739 
1333	 4.12343814237743 
1334	 2.95948020844612 
1335	 2.78178201579717 
1336	 2.70545605670644 
1337	 3.19025556105247 
1338	 2.81621862056993 
1339	 2.76293300110314 
1340	 3.43016897681988 
1341	 3.18607125354392 
1342	 1.69373838131071 
1343	-0.255781669760157 
1344	-2.69577486938518 
1345	-3.45115194233573 
1346	-1.45091552988556 
1347	-0.6370575722003 
1348	 1.68939944499476 
1349	 2.41318830992056 
1350	 0.588343816061722 
1351	 1.21273703484181 
1352	 3.30044652240486 
1353	 3.19948230498272 
1354	 3.06465669533218 
1355	 3.56123381432202 
1356	 1.4443517047221 
1357	 0.110221255188539 
1358	 0.13449728686353 
1359	-2.04950618502159 
1360	-1.55219931875708 
1361	 0.114081078213097 
1362	 1.58265412857891 
1363	 5.84447569935978 
1364	 6.44789045784977 
1365	 6.46934867034848 
1366	 7.49436820472374 
1367	 6.81044334177072 
1368	 6.51060345526404 
1369	 5.62270849784831 
1370	 3.82324797383888 
1371	 0.917791817891198 
1372	-1.18831800895329 
1373	-3.22335443259586 
1374	-1.3389104462456 
1375	 2.33721208471065 
1376	 2.32784728041352 
1377	 5.67315220704952 
1378	 4.66860273488431 
1379	 0.836758558340276 
1380	 2.05273038282619 
1381	 9.61080339012221E-02 
1382	-1.37394234954358 
1383	-2.0042833084166 
1384	-4.34036790992404 
1385	-5.80743778946705 
1386	-5.52822198226006 
1387	-4.21796407761195 
1388	-5.13905306060136 
1389	-5.20965893370514 
1390	-4.286350135368 
1391	-2.9089735770767 
1392	-2.5515482035513 
1393	-1.5077641204845 
1394	-1.00822771776088 
1395	-1.48500805540599 
1396	-2.29224463668292 
1397	-4.14025240499544 
1398	-6.58469680018862 
1399	-7.54074180552135 
1400	-8.75078547685175 
1401	-8.18676132787852 
1402	-3.87458348014915 
1403	-3.16394080714963 
1404	-4.33832788505718 
1405	-4.58474884285646 
1406	-5.00776378712209 
1407	-3.84117234400709 
1408	-3.61755656554016 
1409	-2.13885942791776 
1410	-2.24754172906191 
1411	-3.9299687567738 
1412	-2.8228310735501 
1413	-3.41187820628318 
1414	-3.88055726959626 
1415	-3.81657959003881 
1416	-5.72635373552722 
1417	-6.15888271770892 
1418	-3.90233280657811 
1419	-2.1166234005035 
1420	 0.178930980358734 
1421	 1.65599768385554 
1422	 0.66459659971106 
1423	 3.05331508123435 
1424	 5.21137071595707 
1425	 5.47606977014 
1426	 4.9304600971115 
1427	 2.03567794954933 
1428	-8.23704086836107E-02 
1429	-2.70993102455717 
1430	-2.74761228589375 
1431	-2.07830455015399 
1432	-1.8794659240575 
1433	-0.527022281274424 
1434	-1.93222000438599 
1435	-3.74659149671523 
1436	-6.52772185955764 
1437	-9.5320765028817 
1438	-8.92381101634897 
1439	-5.96552172003346 
1440	-4.74521329648257 
1441	-5.29112499099704 
1442	-7.33161479631318 
1443	-9.91343354903784 
1444	-8.85309639297182 
1445	-8.14868935880948 
1446	-5.06350174604544 
1447	-3.18908282201783 
1448	-2.52622250727468 
1449	-2.75527925178591 
1450	-2.3041127328895 
1451	-2.15455330418316 
1452	-3.47879232785884 
1453	-2.44147376910563 
1454	-1.83795730221725 
1455	-3.33855485835984 
1456	-2.85967607098424 
1457	-1.69805690676846 
1458	 1.48606032695964 
1459	 3.69395059731494 
1460	 5.54267536715741 
1461	 6.57075318840178 
1462	 4.69929104238861 
1463	 5.99844246698272 
1464	 5.92227627708882 
1465	 4.55784339094661 
1466	 3.31890987975425 
1467	 1.25639444334524 
1468	 2.42806790937 
1469	 2.66318786053129 
1470	 3.82668217427719 
1471	 4.92485618914812 
1472	 0.999425120893224 
1473	-2.07667825033681 
1474	-4.85706290783764 
1475	-6.83436950001942 
1476	-4.28034982592373 
1477	-2.1561052607691 
1478	-2.10339897137497 
1479	-2.33320046768536 
1480	-5.12369124567851 
1481	-8.12825391999695 
1482	-7.80326379439429 
1483	-7.18379938805296 
1484	-6.31409843417094 
1485	-4.3463264088166 
1486	-2.63553174832599 
1487	-1.95294934152183 
1488	 0.596516342274079 
1489	 3.52852535101865 
1490	 2.72253394476236 
1491	 1.89561336144654 
1492	 1.27786553016627 
1493	-0.920906676182234 
1494	-2.57798761368971 
1495	-2.46839821600505 
1496	-2.48199155528479 
1497	-2.98362215696092 
1498	-3.07323354912974 
1499	-5.02118221058023 
1500	-5.74791772956349 
1501	-3.78027554621382 
1502	 0.456546691164628 
1503	 4.89077616032681 
1504	 3.19244493482303 
1505	 0.96656209792602 
1506	-2.43483292398728 
1507	-4.56035911887605 
1508	-2.4371415451225 
1509	-3.21723652872552 
1510	-3.02568226840974 
1511	-5.15867570571725 
1512	-7.32885697582799 
1513	-5.73272122230767 
1514	-4.64230287774076 
1515	-1.71749679157649 
1516	-1.44459551662143 
1517	-1.47601727451688 
1518	-0.351446859932037 
1519	-3.77719050611951 
1520	-4.07486386883176 
1521	-2.87682674613419 
1522	-4.51996982511754 
1523	-1.59692996746255 
1524	 1.36341745984465 
1525	 2.04193035601692 
1526	 2.55815594001218 
1527	 0.582218687651205 
1528	-1.05187242388017 
1529	-3.51330353100094 
1530	-4.27034019306834 
1531	-2.91254040031219 
1532	-3.21201625421456 
1533	-2.83293474978019 
1534	-2.8137573702506 
1535	-1.01481846552477 
1536	 2.54376179206983 
1537	 4.88062526505092 
1538	 6.0189613485996 
1539	 3.55700156773921 
1540	-0.543112342603172 
1541	-1.68875365925965 
1542	-1.12784498168487 
1543	 1.71370210540011 
1544	 6.64648566366098 
1545	 8.41825501758363 
1546	 9.17404833791761 
1547	 9.08889385947387 
1548	 8.08513081981805 
1549	 10.2089382308092 
1550	 9.3692160894049 
1551	 8.21855213956368 
1552	 9.39918146297534 
1553	 7.54791802036111 
1554	 9.31736738220988 
1555	 9.82911265025245 
1556	 6.3970184876953 
1557	 4.18388701656532 
1558	 1.07259663222664 
1559	 2.36022893727658 
1560	 4.113727188085 
1561	 4.2509747333962 
1562	 3.61180761619616 
1563	 0.463714032510216 
1564	 0.548051354393709 
1565	 1.42279577944806 
1566	 2.38212506618097 
1567	 2.11241490574935 
1568	-0.197481026126189 
1569	-2.01456125445668 
1570	-3.11794677219287 
1571	-1.07685544493668 
1572	 0.100364471029475 
1573	 1.90624338750199 
1574	 4.33071892139197 
1575	 1.34473918420728 
1576	-1.6429265738981 
1577	-3.41151517940979 
1578	-4.57458869528169 
1579	-3.77325506493998 
1580	-0.395331725562508 
1581	 3.76716879998876 
1582	 4.98901705470864 
1583	 4.65819277547668 
1584	 2.36985058494221 
1585	-1.77576883358854 
1586	-4.43994323237369 
1587	-1.11311329078264 
1588	 2.35838536481104 
1589	 4.19666748862556 
1590	 4.99320281663785 
1591	 2.20101712090098 
1592	-0.726520428841887 
1593	-2.98079561163813 
1594	-2.63585516180488 
1595	-2.19013327458514 
1596	 0.425887701262994 
1597	 3.95231812554685 
1598	 3.82332140850148 
1599	 4.48179482851296 
1600	 3.60475867514458 
1601	 0.970927284093054 
1602	 1.07140441392395 
1603	 1.27720532449551 
1604	 0.722245205158676 
1605	 3.02904618554501 
1606	 4.66682096129336 
1607	 2.6644491027429 
1608	 2.2914843114065 
1609	 2.88384385104848 
1610	 2.54456851195646 
1611	 3.4575583756257 
1612	 3.48109170351271 
1613	 1.96066123304531 
1614	 0.251128019920875 
1615	 0.656502311951178 
1616	 0.518414358059493 
1617	-1.68412238374074 
1618	-2.3557519320757 
1619	-3.3167723518441 
1620	-4.10173209292601 
1621	-1.45355706070967 
1622	 2.4633339264278 
1623	 2.89320495028214 
1624	 5.15574090881803 
1625	 6.96518344381363 
1626	 5.85718081188639 
1627	 6.76551542358651 
1628	 3.62455981814304 
1629	 1.01158282941027 
1630	-0.78693706521979 
1631	-2.77738218019432 
1632	-0.244019212418763 
1633	 1.05450662873513 
1634	 1.6408470160288 
1635	 3.28575544554124 
1636	 6.39881188591317 
1637	 7.72316052085943 
1638	 10.1777996702231 
1639	 10.2313187193531 
1640	 5.18207222559252 
1641	 3.63129100212333 
1642	 3.68719096585219 
1643	 2.02958581361694 
1644	 1.75573900321036 
1645	 1.02590538530762 
1646	-2.5005773297567 
1647	-3.64465378022072 
1648	-3.15655214366835 
1649	-3.09835316877312 
1650	-2.82402743263927 
1651	-1.97011616027563 
1652	-0.444969902357872 
1653	 1.11204183650066 
1654	 3.29692535110586 
1655	 5.41513429934339 
1656	 9.55664155813451 
1657	 9.64424016159406 
1658	 6.62612672646155 
1659	 5.6618430132775 
1660	 1.12674975502692 
1661	 0.964617329892712 
1662	 6.53770712896234 
1663	 6.75118998582635 
1664	 6.38986510540347 
1665	 5.0907210109451 
1666	-0.497598011516534 
1667	-1.50799748899564 
1668	-0.156479506221408 
1669	-0.368351731942194 
1670	 0.734073634363485 
1671	 0.311745257862484 
1672	-1.61181871884463 
1673	-2.61716633883365 
1674	-3.90048078267066 
1675	-3.58164834805728 
1676	-2.46539524082473 
1677	-1.90212235707226 
1678	-0.122025502333757 
1679	-0.560701541827732 
1680	-2.62641618776715 
1681	-3.53371938604983 
1682	-4.59119804735766 
1683	-7.44680419765449 
1684	-6.20356180216219 
1685	-5.85373119682845 
1686	-6.70191648217731 
1687	-2.64937794134065 
1688	-1.09358964323988 
1689	 0.105378749445632 
1690	 0.785456758557261 
1691	-0.884372385603089 
1692	-1.76646847686376 
1693	-3.52328850980611 
1694	-2.92358430975351 
1695	 0.933095578039492 
1696	 1.51544090793872 
1697	 2.71574264535859 
1698	 2.15006623845746 
1699	-3.36409609863701 
1700	-5.69326148668845 
1701	-7.70811517864367 
1702	-7.54696079977204 
1703	-4.04152590521678 
1704	-2.79184634884779 
1705	-1.50438457445459 
1706	 0.311897213459521 
1707	 1.01772877400126 
1708	 2.53884682780715 
1709	 7.34072433187417 
1710	 7.29245880419596 
1711	 3.27928933591979 
1712	 2.45683322945526 
1713	 1.14121803349936 
1714	-0.457024491676214 
1715	-0.384571943294023 
1716	-0.995965089012118 
1717	-4.77482397983513 
1718	-3.64880129127612 
1719	 1.44564743051475 
1720	 3.43784939452039 
1721	 6.66959522824707 
1722	 6.93260302339162 
1723	 4.47863078486461 
1724	 4.10498898714636 
1725	 4.07884242904146 
1726	 3.74101097911472 
1727	-0.38172138629141 
1728	-4.44940207701914 
1729	-5.01709199055436 
1730	-4.50714326687199 
1731	-2.78569996217291 
1732	-3.46752130725879 
1733	-2.96213452876398 
1734	-0.749909702519785 
1735	-0.67888777177267 
1736	-1.62181792224579 
1737	-1.26584351404386 
1738	-2.61464079252381 
1739	-2.21478658264422 
1740	 1.76082253964487 
1741	 3.09561917508993 
1742	 4.06429346560134 
1743	 3.1888099212222 
1744	-1.11278641689276 
1745	-1.71205397322657 
1746	-2.08489253943267 
1747	-2.03529153683202 
1748	 1.09216671349503 
1749	 1.94621307326261 
1750	 2.40510144097207 
1751	 1.22771573825243 
1752	-1.65199784517553 
1753	-3.42274639270533 
1754	-7.14734480172779 
1755	-7.32299675830603 
1756	 8.95060222433708 
1757	 6.82635723877588 
1758	-2.68027864348718 
1759	 2.49581994209217 
1760	 14.9069565266708 
1761	 36.7846702169093 
1762	 45.4536165549004 
1763	 52.0057513897974 
1764	 49.2919817565344 
1765	 24.4517470281607 
1766	 12.2103709076569 
1767	-2.54333550227279 
1768	-7.38659696572998 
1769	-1.51336913137927 
1770	-7.61333536266962 
1771	-6.9980636250798 
1772	 1.7133920000993 
1773	-1.80682179975136 
1774	-21.4974837719695 
1775	-20.6158401609259 
1776	-11.1488552557656 
1777	-5.43388461551731 
1778	 10.788763819352 
1779	 20.7399421233119 
1780	 17.2163919200379 
1781	 3.82801573789603 
1782	-2.7787691559304 
1783	-1.65209422804528 
1784	 1.64100128190874 
1785	 15.0879306000228 
1786	 25.7458651784714 
1787	 18.9004982217192 
1788	 9.84974116094395 
1789	 15.9612268473873 
1790	 18.6045293363887 
1791	 10.4660952702468 
1792	 9.39890207499854 
1793	 5.61231875854088 
1794	 4.97075847664702 
1795	-1.32327573246636 
1796	 10.0220592176384 
1797	 26.2470608770148 
1798	 31.6382052401731 
1799	 31.281631791169 
1800	 30.7250350779953 
1801	 35.3931566441787 
1802	 40.6792813617134 
1803	 36.4708000349929 
1804	 26.2393665919479 
1805	 21.5959514267545 
1806	 11.9381888065347 
1807	-2.08677796722757 
1808	 2.00783940109244 
1809	 13.3943525009139 
1810	 14.2078040226722 
1811	 6.57984157643178 
1812	 3.2083333908304 
1813	-11.1376129043924 
1814	-10.7186047661021 
1815	 10.2669449579591 
1816	 12.8806238048425 
1817	 16.4587525294152 
1818	 7.18391763717514 
1819	-6.70000942691962 
1820	-22.8460114946819 
1821	-22.46224882072 
1822	-4.98900821436313 
1823	 1.67761927551277 
1824	 14.9357193169356 
1825	 21.3659834561037 
1826	 23.0523789503428 
1827	 22.1873586780377 
1828	 14.5674548122782 
1829	 9.80755847546693 
1830	 11.9458227065181 
1831	 17.1582377970535 
1832	 17.3585046108749 
1833	 24.7609797714771 
1834	 25.4136841912274 
1835	 11.3646745792874 
1836	 9.67398715434823 
1837	 18.5481330095285 
1838	 21.0986643313116 
1839	 28.6516257329391 
1840	 29.941008547005 
1841	 25.3798845418549 
1842	 9.78128976333419 
1843	 3.43184532719221 
1844	-9.34962920399578 
1845	-11.4489165587512 
1846	-2.78143180242401 
1847	 2.08211157015166 
1848	 12.5774109549058 
1849	 20.5572723962974 
1850	 18.8108313495079 
1851	 19.3137362658119 
1852	 19.3040861843754 
1853	 18.7312704434083 
1854	 14.117879970733 
1855	 1.81565388649424 
1856	 1.50373332776216 
1857	 4.35128928975306 
1858	 5.52169814318472 
1859	 10.4203527382276 
1860	 16.3472157418123 
1861	 22.292134572544 
1862	 13.7068879426088 
1863	 10.0206066800986 
1864	 14.2289914382695 
1865	 12.2380718884781 
1866	 0.179998690549472 
1867	-1.81344472395643 
1868	 3.16778265774828 
1869	-3.68348040145953 
1870	 0.882173613982655 
1871	 9.89444848623609 
1872	 18.933628964493 
1873	 30.9137335386748 
1874	 25.515956319326 
1875	 26.3144207603129 
1876	 25.1323611039535 
1877	 19.6627978966776 
1878	 10.7218814619298 
1879	 14.3485620976994 
1880	 3.34796949519763 
1881	-6.31293387866376 
1882	-12.4229882266024 
1883	-14.568687264546 
1884	-4.50455879950611 
1885	 2.08066192104799 
1886	 17.8420668510806 
1887	 22.8646262237633 
1888	 23.9958804477012 
1889	 14.4807225657656 
1890	 3.50827041935742 
1891	-17.1834544299678 
1892	-21.2954142711482 
1893	-21.2314854446143 
1894	-13.9071396888821 
1895	 0.745652936142632 
1896	 15.0107436096971 
1897	 18.0155903213451 
1898	 10.8452035549658 
1899	 4.06130617920801 
1900	-8.20961855603545 
1901	-25.5856339727015 
1902	-33.9651640394486 
1903	-28.0648752707077 
1904	-14.7673985315215 
1905	 10.0818366404182 
1906	 28.1623259331942 
1907	 45.883125701545 
1908	 51.2569766015861 
1909	 37.2901594143835 
1910	 31.143436980071 
1911	 18.1926033537599 
1912	 15.773132495141 
1913	 16.7896456090393 
1914	 31.4596084595859 
1915	 40.2269579729637 
1916	 37.7360371450135 
1917	 28.8233871888014 
1918	 23.1234852471592 
1919	 16.1119791959887 
1920	 3.3537467575648 
1921	-2.96461199484124 
1922	-8.91258280348157 
1923	-10.5706784588213 
1924	-1.83337874770807 
1925	 2.1003669270369 
1926	 9.14477501698032 
1927	 13.9199476229425 
1928	 0.549218388045288 
1929	-19.7515781644998 
1930	-26.2700744591868 
1931	-38.2780733433537 
1932	-39.2518609573285 
1933	-18.4744341452167 
1934	-13.4840578866382 
1935	-17.68598709628 
1936	-13.5171331364527 
1937	-6.65405694250838 
1938	-3.34911394753647 
1939	 5.56047462558523 
1940	 7.29430609871035 
1941	 10.1382839427008 
1942	 6.73178457647666 
1943	 9.17930312802254 
1944	 20.4590561542437 
1945	 19.2443800037852 
1946	 9.40220015598845 
1947	 5.0893817507221 
1948	-6.67522149089547 
1949	-11.2797382804505 
1950	-9.05739923120905 
1951	-5.18655012610243 
1952	-0.796379715399456 
1953	 9.41483164202569 
1954	 15.8795997761088 
1955	 26.1421460798424 
1956	 31.0571095969125 
1957	 33.081665797797 
1958	 33.6634118742466 
1959	 30.1634746459427 
1960	 30.1592773401537 
1961	 28.1590325990849 
1962	 29.0587842006296 
1963	 37.3691320089348 
1964	 39.2394652457546 
1965	 35.5412206490577 
1966	 38.9289096030092 
1967	 32.9311056060281 
1968	 16.393837983958 
1969	 13.2198924213374 
1970	 13.6882776778705 
1971	 12.0495157113228 
1972	 18.9993470101819 
1973	 18.6398062113095 
1974	 12.7486626646675 
1975	 6.0947560764967 
1976	-9.80413158012963 
1977	-13.8630835918583 
1978	-17.1426930398881 
1979	-14.0031341831512 
1980	-4.56200445210248 
1981	 23.384867862407 
1982	 30.9461489973031 
1983	 35.9310905942521 
1984	 34.7187563378339 
1985	 19.2963376524756 
1986	 12.5538929885513 
1987	 6.43345368867527 
1988	 1.95399656165902 
1989	 3.43776434282428 
1990	-1.27632591585267 
1991	-6.73301392227222 
1992	-21.0568674016097 
1993	-31.1320617068035 
1994	-29.9544317189825 
1995	-24.1633242246135 
1996	-4.78721956396294 
1997	 5.44384931507184 
1998	 20.4677686290926 
1999	 23.7832169852541 
2000	 18.679750628042 
2001	 15.5172583460433 
2002	 4.95731884661234 
2003	-0.37197648787473 
2004	-7.06207161953697 
2005	-6.54227692974833 
2006	-5.01578037081776 
2007	 6.88500219465332 
2008	 21.8537445114429 
2009	 35.9617995830646 
2010	 41.0708426549088 
2011	 42.6874394804678 
2012	 39.5492173537465 
2013	 23.2333325858249 
2014	 15.9708722850132 
2015	 9.06612428883391 
2016	 4.26522857479229 
2017	-0.206542952296646 
2018	 2.69016829741588 
2019	 15.4116028876529 
2020	 17.7510751811253 
2021	 23.8559418294693 
2022	 38.7793144609261 
2023	 36.6576045047757 
2024	 40.2217942827822 
2025	 40.799396214955 
2026	 36.6564889677585 
2027	 33.4479829105186 
2028	 31.1913898602992 
2029	 26.8676578076479 
2030	 17.39558063755 
2031	 15.6569918739297 
2032	 16.5540602610479 
2033	 21.7339445818366 
2034	 19.0591848958382 
2035	 16.4637197558719 
2036	 9.15676809824054 
2037	-10.5543445697685 
2038	-20.1366243595236 
2039	-12.0909577177207 
2040	-0.214683417082397 
2041	 12.9339642824277 
2042	 16.8424661968639 
2043	 19.1934961050952 
2044	 13.5977233172656 
2045	-7.5882232419905 
2046	-17.5047993017296 
2047	-28.8230381144448 
2048	-32.6727549787266 
2049	-32.6912701137389 
2050	-21.7058838929139 
2051	-12.8485544711314 
2052	-7.10282530793388 
2053	-4.16954107432307 
2054	-16.373218214138 
2055	-24.1813748771545 
2056	-25.6548350143283 
2057	-25.2536218182869 
2058	-18.0024038225072 
2059	-11.7248511801839 
2060	-2.10945779817435 
2061	 4.12321789657958 
2062	 11.9581616398846 
2063	 16.4478671242722 
2064	 18.8863577790229 
2065	 18.8447241518877 
2066	 12.816541525686 
2067	 2.04414666831076 
2068	-1.56021448185977 
2069	-16.9673564389756 
2070	-24.9390874471293 
2071	-26.0002578554711 
2072	-21.7807150756998 
2073	-7.66172542088512 
2074	 0.678519207736393 
2075	 8.23392479276223 
2076	 7.60972721260478 
2077	-14.382268752996 
2078	-13.8211618690864 
2079	-3.7024481467893 
2080	 3.45589988714366 
2081	 19.3597979246951 
2082	 34.2076309452769 
2083	 34.359303003147 
2084	 37.4202231398672 
2085	 39.4472667670408 
2086	 33.9414070846129 
2087	 33.8754058504931 
2088	 20.9142908565985 
2089	 8.77373509531425 
2090	-1.30007140371614 
2091	-10.9232815825198 
2092	-12.3465231291813 
2093	-12.4669350441671 
2094	-1.39039746761411 
2095	 7.86757354951701 
2096	 22.2793683721931 
2097	 29.6855082598141 
2098	 37.9477898802207 
2099	 38.5037686659625 
2100	 32.9368402575815 
2101	 31.2261250138338 
2102	 21.6189198398659 
2103	 11.2712823052778 
2104	 4.13688073879509 
2105	-8.25113641898318 
2106	-11.2627380226549 
2107	-3.31625062733443 
2108	-0.387569367837698 
2109	-5.50159539773614 
2110	-2.49673665628277 
2111	-4.18742055008393 
2112	-9.57275561993682 
2113	 7.9076051516167E-03 
2114	 5.57147406995961 
2115	 7.94167194221065 
2116	 8.00032177666327 
2117	 14.475602718438 
2118	 14.8396324126311 
2119	 6.34118251471621 
2120	 4.53503078765025 
2121	 7.41583709852263 
2122	-6.17124884966286 
2123	-7.09585840617838 
2124	-7.89394993871665 
2125	-11.6203431188056 
2126	-10.651995296599 
2127	-12.061890378548 
2128	-0.464129930193045 
2129	 11.3584527039511 
2130	 14.13357275902 
2131	 18.0506597826396 
2132	 15.1562375175035 
2133	 16.5109253697939 
2134	 22.6054226312602 
2135	 18.6128092522519 
2136	 5.14567351299056 
2137	 0.924072129409651 
2138	-8.23230393098773 
2139	-11.5043656001327 
2140	-7.5593355970734 
2141	 6.21226853538547 
2142	 6.0735440349528 
2143	 2.52996646298153 
2144	 1.68652968149808 
2145	-12.5557155407877 
2146	-11.1030403789174 
2147	 2.01655085285665 
2148	 10.3584964187535 
2149	 30.3257751148043 
2150	 40.846883716491 
2151	 41.6913868941042 
2152	 46.9188785169782 
2153	 34.9822559339844 
2154	 24.0655612431917 
2155	 16.8118984013744 
2156	 8.09893223806888 
2157	 14.3206864829833 
2158	 14.9652543335931 
2159	 13.8173172000331 
2160	 15.9997999278976 
2161	 16.8475963174089 
2162	 20.1986315762258 
2163	 30.5634015349193 
2164	 34.8274246569754 
2165	 34.6502124282611 
2166	 39.9141654396998 
2167	 38.1048296905074 
2168	 41.073092439521 
2169	 42.6955485500822 
2170	 34.4106231575344 
2171	 26.5586140618685 
2172	 18.9707353523476 
2173	 16.1530658188015 
2174	 16.5987740179561 
2175	 26.4214413419266 
2176	 38.9378942622374 
2177	 48.9881376788408 
2178	 63.7238031910273 
2179	 61.3412348750862 
2180	 49.7275786569321 
2181	 41.4174481368601 
2182	 23.6564481558663 
2183	 17.242658511312 
2184	 21.0788756922677 
2185	 26.3702148480889 
2186	 43.5363025202414 
2187	 49.2131929162662 
2188	 53.5062300337409 
2189	 49.8240190017557 
2190	 44.4248614469656 
2191	 38.8747600900099 
2192	 37.6301799360459 
2193	 33.5605209516929 
2194	 28.3612707749883 
2195	 15.1007798461656 
2196	 0.401897498600831 
2197	 1.84677829875469 
2198	-4.43786479332754 
2199	-10.2087332223417 
2200	-11.0956950841494 
2201	-17.0686633216797 
2202	-13.387441730785 
2203	-5.11980545683765 
2204	 1.30764631432582 
2205	 3.82074474051279 
2206	 2.57546908263807 
2207	-4.31350185008936 
2208	-9.25555069437984 
2209	-1.46543010627985 
2210	 1.72995825544924 
2211	 7.32086860495591 
2212	 10.2598312189486 
2213	 10.0210019787501 
2214	 7.88432154744142 
2215	 1.93498239672717 
2216	 2.15583094400883 
2217	 4.29669422159022 
2218	 6.61003820539542 
2219	 12.2500336585182 
2220	 20.4165546651458 
2221	 18.8095295328311 
2222	 17.032858907325 
2223	 15.9224149553246 
2224	 5.1788295915646 
2225	 3.22331956044749 
2226	 3.877019455019 
2227	-6.31756063142108 
2228	-1.17825384625889 
2229	 4.13837743507516 
2230	 7.23121544339036 
2231	 12.7223061941814 
2232	 7.98462507124963 
2233	 2.19901139722834 
2234	-6.00022893206077 
2235	-4.99525274308273 
2236	-2.54116647525668 
2237	-9.38996396653958 
2238	-7.65435723700724 
2239	-6.06620482522984 
2240	 2.12702056617156 
2241	 22.9022650669177 
2242	 35.2451879653286 
2243	 42.3640971428647 
2244	 48.8728209516657 
2245	 43.8219109343845 
2246	 22.4306343399193 
2247	 17.2096539516699 
2248	 10.4525468221385 
2249	 10.721338099978 
2250	 22.9861422034221 
2251	 28.5821187362606 
2252	 35.3168241578949 
2253	 37.2676540006756 
2254	 38.2356998233641 
2255	 38.767081255435 
2256	 35.4975639933247 
2257	 31.2078781191512 
2258	 28.9503986016725 
2259	 21.3137391159614 
2260	 17.4819712873364 
2261	 13.5048788700277 
2262	 3.08679413975657 
2263	-2.90780951806373 
2264	-15.4604750815444 
2265	-27.8395760981035 
2266	-20.0766891086002 
2267	-11.7562926844773 
2268	-2.17914616246705 
2269	 17.2413384699792 
2270	 22.613254078574 
2271	 23.3218918006269 
2272	 28.4728332408235 
2273	 20.0211795615945 
2274	 16.1865761053469 
2275	 11.1720085748107 
2276	-4.15902676434988 
2277	-8.01692610876757 
2278	-12.4758810591921 
2279	-20.9650243044865 
2280	-16.4881525969114 
2281	-14.5883832856843 
2282	-14.0437163621793 
2283	-8.23795019347032 
2284	 2.22801446936223 
2285	 18.0966207127345 
2286	 22.328552346996 
2287	 19.4253737865884 
2288	 26.5449559028379 
2289	 30.0404791405209 
2290	 36.0048050025524 
2291	 57.3285992658323 
2292	 62.6531472207046 
2293	 53.0787815243722 
2294	 48.6670571514704 
2295	 43.1759211371982 
2296	 36.1197954227588 
2297	 27.9965121646754 
2298	 24.214028899451 
2299	 20.0495740785559 
2300	 16.4328448396339 
2301	 14.6873809368833 
2302	 14.8696904366554 
2303	 17.1620529607673 
2304	 18.8632650614005 
2305	 22.7457196874736 
2306	 24.8560370453426 
2307	 23.3205668341117 
2308	 24.1120952766888 
2309	 24.1666073136899 
2310	 32.964048770617 
2311	 38.3429933278239 
2312	 35.1592769136702 
2313	 26.7753112599091 
2314	 19.0879088993442 
2315	 14.5639733597021 
2316	 9.63437909928747 
2317	 11.9089130879116 
2318	 13.5081863082732 
2319	 16.0010131417176 
2320	 24.9505126204777 
2321	 30.4631673385834 
2322	 40.0050709479577 
2323	 50.4637362170774 
2324	 49.8939945192936 
2325	 43.5865374511197 
2326	 34.9166435470197 
2327	 21.3511134601819 
2328	 11.9103205081412 
2329	 6.35722617078714 
2330	-9.38344161833028 
2331	-25.439904961452 
2332	-32.5662696653354 
2333	-33.6707322304289 
2334	-18.4970279406998 
2335	-5.4660452837277 
2336	-9.96830153822997 
2337	-17.5687320708624 
2338	-23.451844533503 
2339	-18.9017884720068 
2340	-9.05221869903102 
2341	-2.29728072945936 
2342	 7.98576739907767 
2343	 18.8010068017609 
2344	 25.660673231757 
2345	 36.2045563371614 
2346	 46.7676406917844 
2347	 51.2510724503147 
2348	 48.7081474843376 
2349	 43.1254552887384 
2350	 33.6654456237681 
2351	 12.7132625561201 
2352	-5.7493865707181 
2353	-15.424936937235 
2354	-23.1295241912379 
2355	-20.0299168587316 
2356	-3.44079240530121 
2357	 6.11324154215596 
2358	 19.039284681422 
2359	 37.4752761473634 
2360	 36.1223639007211 
2361	 37.5836044028079 
2362	 38.5070582579319 
2363	 19.1553713367172 
2364	 14.474119308507 
2365	 8.8308217824393 
2366	-1.77895542720072 
2367	 12.6874483628153 
2368	 16.6005077692195 
2369	 23.1522317425865 
2370	 33.7171388600579 
2371	 21.7474263498588 
2372	 11.0882896868153 
2373	-7.78856527943301 
2374	-21.8247813312274 
2375	-28.5691095276904 
2376	-38.083452746155 
2377	-32.3777075020758 
2378	-30.2812879054228 
2379	-27.3098390901163 
2380	-18.5407987768219 
2381	-8.69858716576418 
2382	 4.96388896952609E-02 
2383	 3.14077931491094 
2384	 9.90659278126175 
2385	 9.86063480539939 
2386	 6.11864241693267 
2387	 6.68081411628701 
2388	 15.5474342811211 
2389	 27.0465326418044 
2390	 30.9520448580872 
2391	 30.5420709885466 
2392	 21.4749699197245 
2393	 12.0716788544211 
2394	 16.2442727693493 
2395	 28.43377746686 
2396	 37.0479880594238 
2397	 37.3936203701601 
2398	 31.768685721213 
2399	 16.085512828613 
2400	-5.16720010187508 
2401	-19.2488587779315 
2402	-32.9984938158963 
2403	-40.5818536423066 
2404	-33.1319556324983 
2405	-16.6005081505265 
2406	-4.40842334895841 
2407	 4.69965264347714 
2408	 6.92586574240366 
2409	 0.774752345193392 
2410	-0.463476998795028 
2411	-7.54650833636956 
2412	-5.59368094081243 
2413	 0.886569651599685 
2414	-1.34511425519634 
2415	 7.1874094131896 
2416	 10.4110045935481 
2417	 8.78374936825928 
2418	 9.56729848930515 
2419	 3.00890306215736 
2420	 0.236042281943264 
2421	-3.58517274700267 
2422	-3.65134089755733 
2423	 3.5608496221904 
2424	 7.67399728457097 
2425	 14.2018411647776 
2426	 16.8005221922418 
2427	 20.5558392784109 
2428	 26.4578193396602 
2429	 24.7104525995951 
2430	 26.0551469833247 
2431	 29.8072388091449 
2432	 35.9620543227494 
2433	 46.1448671400071 
2434	 53.3773064080405 
2435	 44.9322649073074 
2436	 21.5184241304069 
2437	-3.19969961320383 
2438	-26.0104028600169 
2439	-39.1105917730098 
2440	-42.0483540622685 
2441	-27.4320717500168 
2442	-12.8079384255236 
2443	-6.40885243618618 
2444	 10.6949913224002 
2445	 15.6453670805905 
2446	 19.5752378289539 
2447	 33.1520540435702 
2448	 36.8795803876391 
2449	 31.5168195187612 
2450	 19.0892034553306 
2451	 10.1638347857295 
2452	 4.54427850139648 
2453	 1.40848360227856 
2454	 2.78022971530961 
2455	 3.39064885363392 
2456	-7.17137600498503 
2457	-20.071088792323 
2458	-29.2671510813001 
2459	-40.4567037866828 
2460	-38.0838753133785 
2461	-30.6752409102334 
2462	-17.997201170177 
2463	-7.16272884608539 
2464	-9.22678529829695 
2465	-3.81610182223895 
2466	-0.589971577870293 
2467	 8.0489574438127 
2468	 7.3916232207159 
2469	-0.398042530372132 
2470	 4.56106434720525 
2471	 2.53546002455393 
2472	 8.58086694410051 
2473	 21.9078331599239 
2474	 21.6780861529375 
2475	 12.2043375378387 
2476	 0.17781710024965 
2477	-8.9249963338241 
2478	-15.3009222182015 
2479	-14.9992713116593 
2480	-8.1850299636858 
2481	-14.1674992722003 
2482	-21.9210253914977 
2483	-17.8277351272645 
2484	-22.5817954195123 
2485	-12.816800804906 
2486	 3.72338285223544 
2487	-7.48308646520988 
2488	-14.8421278343859 
2489	-23.3379217546204 
2490	-39.3032643257331 
2491	-39.8048364663302 
2492	-41.5722294644048 
2493	-39.9349994137976 
2494	-31.9551519336163 
2495	-36.035649144177 
2496	-29.0642839625587 
2497	-21.7332455321835 
2498	-29.4099982810707 
2499	-19.0265588550099 
2500	-12.7725285043523 
