Wavelength	4mm_blackPA00000.asd
350	-1.04588203828587 
351	-0.885444258171999 
352	-0.744153886833252 
353	 0.283902444596511 
354	-0.968928664036728 
355	-2.01929967873129 
356	-0.755594877493074 
357	 1.52833360025764 
358	 0.501965795538381 
359	-2.44587917807423 
360	-1.17105503945482 
361	 9.27113224426377E-02 
362	 0.239317668957072 
363	-0.606149107745034 
364	-2.34048155184172E-03 
365	-1.0341109129581 
366	-2.89578155627436 
367	 0.518259845010736 
368	 0.115682892506738 
369	-2.1419431846654 
370	-1.35450769818092 
371	 0.523260958919545 
372	 0.737180078190138 
373	-1.13537229942503 
374	-0.874588742111471 
375	-1.14201421604769 
376	-1.66331871087134 
377	-0.966039048107205 
378	 0.128181443966536 
379	 0.129316533213417 
380	-1.45770075934844 
381	-2.1975309192137 
382	-2.24047080035993 
383	-1.5951600769252 
384	-0.231826509069393 
385	-0.300313548729497 
386	-1.0966816875048 
387	-1.36988264131693 
388	-1.31829714923113 
389	-1.20881303940146 
390	-1.07743359413208 
391	-0.579074882626828 
392	 8.88302292630004E-03 
393	 4.76225583565872E-02 
394	-0.978820898698321 
395	-0.682410409180035 
396	-1.30769160124516 
397	-3.37357912281709 
398	-1.1026404393254 
399	-0.467108239441267 
400	-1.31512058570025 
401	 0.984628313899689 
402	 1.36965552716596 
403	 0.474272001439402 
404	 4.82823957706052E-02 
405	 0.413469677088187 
406	 0.254048063668285 
407	-0.864159823346219 
408	-2.17796105789914 
409	-1.06819310347692 
410	 0.34934321433798 
411	-1.52353630110239 
412	-1.49601291126093 
413	-0.539231794069522 
414	-0.161012707077178 
415	-1.06442651362997 
416	-1.61525704447584 
417	-1.63614822685538 
418	-2.21677383552614 
419	-1.49818248062363 
420	-0.761810106353682 
421	-1.42644541031504 
422	-0.474803848259169 
423	 0.54831305738032 
424	 0.59227778045096 
425	-8.84110425883244E-02 
426	-0.840000004395457 
427	-0.972315173991935 
428	 0.058065571601688 
429	-0.344838088979812 
430	 6.09656957444091E-02 
431	 2.42852199989985 
432	 0.228767115679516 
433	-1.10193999047624 
434	-0.478380725488848 
435	-2.76420213469164 
436	-2.02402583857755 
437	 0.145651071466741 
438	-0.219832911901414 
439	-0.36826350107785 
440	-0.112168566336599 
441	 7.54904940606199E-02 
442	-1.55510719801221 
443	-1.52653331294416 
444	-0.14206929659771 
445	-1.1312494240851 
446	-1.0181710750921 
447	 9.88469775048467E-03 
448	 0.591379629795959 
449	-1.24370605431623 
450	-1.74691687407629 
451	 0.300487181399659 
452	-0.204493181418478 
453	-0.700034222865125 
454	-0.840375808062113 
455	-1.51616634935135 
456	-1.3464740819743 
457	-1.10687019853735 
458	-1.63317572421327 
459	-1.47724397604596 
460	-0.815704476092325 
461	-0.339327864330076 
462	-1.92846341965783 
463	-1.73278139162076 
464	-0.747852799590338 
465	-2.33491797444225 
466	-2.08244789560543 
467	-0.560516460726361 
468	 0.599566753379332 
469	-0.355035646155292 
470	-1.0158873836933 
471	-0.795906007173813 
472	-2.27396964791307 
473	-1.43176589452793 
474	 0.686743192097601 
475	 0.752665386963878 
476	-0.32819714394416 
477	-1.64989814766173 
478	-2.36919878839988 
479	-1.96040432141907 
480	-1.76598803069607 
481	-2.06281964027644 
482	-1.61064044135782 
483	-1.54184239975833 
484	-1.75704742818776 
485	-1.67338703198403 
486	-1.45174273371431 
487	-1.1391658708582 
488	-0.816262884634949 
489	-0.520819611644371 
490	-1.67301232572356 
491	-3.48356673739305 
492	-2.06638746921442 
493	-1.18849240709528 
494	-1.31465236334499 
495	-1.55819004358554 
496	-0.787698891488869 
497	-1.10970267615322 
498	-3.52818864203498 
499	-3.90623885830162 
500	-2.98389199863139 
501	-1.68085872680974 
502	-1.22470812189353 
503	-0.309946590655678 
504	 0.434893094155455 
505	-0.283137855755048 
506	-1.79854689531887 
507	-2.88536242620735 
508	-2.67666759821901 
509	-1.38772217570749 
510	-1.75341561688467 
511	-3.65845808132236 
512	-3.10988003893154 
513	-2.4044196134846 
514	-2.15775762944221 
515	-2.29159069226369 
516	-1.24899397191201 
517	-0.436294669202583 
518	-1.03212373728785 
519	-1.64514476500098 
520	-2.12806939301369 
521	-2.5075289124866 
522	-3.1248364242393 
523	-2.49787626636342 
524	-1.5024105746503 
525	-2.0216393741448 
526	-2.2151616114795 
527	-2.20328689705 
528	-2.38107849665306 
529	-2.92518321930769 
530	-2.67868776228003 
531	-1.66959100096799 
532	-2.00494817400456 
533	-1.55103849040719 
534	-0.804578816970796 
535	-1.51774351874376 
536	-2.5238190876752 
537	-3.26414883021947 
538	-3.43760824034917 
539	-3.54643659065765 
540	-2.1868091104594 
541	 0.209195445634268 
542	-0.472976819302846 
543	-1.46632823439818 
544	-2.24644091800855 
545	-3.33735535716551 
546	-2.06176455871012 
547	-0.631431782144892 
548	-1.67654811905871 
549	-3.47352429823372 
550	-3.65538194516522 
551	-1.93746963315429 
552	-2.41027395119698 
553	-3.10881339420924 
554	-3.21811022478324 
555	-2.54977142634313 
556	-3.62001558636433 
557	-4.22327035702175 
558	-1.93704105939764 
559	-2.68956487804435 
560	-3.7107410097104 
561	-2.84330985879735 
562	-0.911563676887404 
563	-1.32809805109722 
564	-3.58444649072292 
565	-3.3647136520265 
566	-3.16580578848335 
567	-2.5427443885908 
568	-0.63463230391697 
569	-0.698464737795595 
570	-1.84959549254032 
571	-2.79354692584995 
572	-2.57043491204928 
573	-2.95645965416793 
574	-3.852913958844 
575	-2.78741311343395 
576	-2.65177881379437 
577	-3.11246236766768 
578	-2.71445680307822 
579	-3.4350252354601 
580	-3.95221374036341 
581	-3.203747704377 
582	-3.2277330223748 
583	-1.99713341438186 
584	 0.300947056973455 
585	-4.72038490328316E-02 
586	-2.24928464754692 
587	-4.69370199661754 
588	-5.02708368942413 
589	-2.77998227485391 
590	 3.54409930150054E-02 
591	 1.02558621424791 
592	-1.23060045606281 
593	-3.01803555727927 
594	-2.93178128506112 
595	-4.6188521629276 
596	-4.42887348372567 
597	-2.41064187010601 
598	-1.04817555852209 
599	-1.59179148633316 
600	-2.75350746617613 
601	-2.85865657244594 
602	-3.5513994811391 
603	-2.99094059040288 
604	-0.824164173127751 
605	-0.82635155037477 
606	-1.75232450442504 
607	-2.53042781555419 
608	-1.94751680890488 
609	-3.15070596343459 
610	-4.32930854335159 
611	-2.61247507389276 
612	-1.92457711968185 
613	-1.56281672732546 
614	-1.10783212293392 
615	-3.25712199258649 
616	-3.82085572122092 
617	-2.26723810083493 
618	-2.54987534348452 
619	-2.59755839577126 
620	-2.29496634519778 
621	-2.22204907962784 
622	-2.61766531648635 
623	-2.98570697731147 
624	-2.7900956484727 
625	-1.70683202290427 
626	-1.23078314848755 
627	-1.81902928897768 
628	-2.31246114976338 
629	-2.59408321020797 
630	-2.63889976215217 
631	-2.54258560472304 
632	-2.10022517825433 
633	-1.53035894123598 
634	-1.20280656808021 
635	-1.85117829609852 
636	-1.84936252385613 
637	-1.16516279538709 
638	-3.70795648691987 
639	-4.71398984005504 
640	-3.54923233405814 
641	-2.44826944430769 
642	-1.71594390316105 
643	-1.07007684224773 
644	-0.270066761132231 
645	-1.2772133216887 
646	-2.42907266516423 
647	-2.58213726089031 
648	-2.74885072969741 
649	-2.26564803056635 
650	-1.73424639236395 
651	-3.11423807541313 
652	-3.18892933395085 
653	-2.7112807264824 
654	-3.57802875175718 
655	-4.16484573971619 
656	-4.02834117644433 
657	-3.27186464587082 
658	-3.09839680352097 
659	-3.36981461483901 
660	-3.68105188231929 
661	-3.27169756180318 
662	-1.73135227481378 
663	-0.471063743890928 
664	-1.51785298162794 
665	-1.65224494974156 
666	-1.92840105703775 
667	-3.23650556800981 
668	-2.79728129197379 
669	-1.72436812495231 
670	-1.10420392237216 
671	-2.17568803434725 
672	-2.16544909507776 
673	-1.96656535412979 
674	-4.25995244585096 
675	-3.99570520730283 
676	-2.5993832301457 
677	-2.41048779266093 
678	-2.80720345116177 
679	-2.47981556682523 
680	-1.4128963552446 
681	-2.41357714976833 
682	-2.47145636727054 
683	-1.78639789369575 
684	-2.62564406026835 
685	-2.98849093008906 
686	-2.90689160191072 
687	-2.89791190041654 
688	-3.17558770694646 
689	-3.04203357807947 
690	-2.35059691988896 
691	-2.40895841450365 
692	-2.302756293253 
693	-1.97269316200209 
694	-2.02282880910574 
695	-2.54028325728178 
696	-3.28267278419063 
697	-3.82578748967431 
698	-3.52501762540832 
699	-3.05288505960658 
700	-2.93353937202068 
701	-2.99710474537728 
702	-2.70437570132051 
703	-2.49400175917679 
704	-3.93419528779078 
705	-2.36925238028598 
706	-0.380849700148655 
707	-2.31664928135644 
708	-3.11460015039376 
709	-2.97172957316596 
710	-2.60125247255891 
711	-1.97009064879647 
712	-2.34362747664768 
713	-3.39702597927515 
714	-2.94324210261675 
715	-1.50967638438799 
716	-0.614402884506251 
717	-1.91743444142004 
718	-2.84783345800456 
719	-2.88499043662541 
720	-2.07584487699143 
721	-0.850184477462677 
722	-1.24490148568252 
723	-3.03508931434533 
724	-3.080661632797 
725	-2.93665839846669 
726	-3.1968572692585 
727	-3.99352079849451 
728	-3.29471862737323 
729	-2.17664749767975 
730	-1.77582663635502 
731	-1.57027400547081 
732	-2.03399418248767 
733	-2.88705833564909 
734	-2.81543184343908 
735	-1.98051923180999 
736	-1.31626407263719 
737	-2.0521864302529 
738	-3.28796976302799 
739	-3.59927718448876 
740	-2.45183899000191 
741	-2.72236945007468 
742	-2.04760010638823 
743	-0.532515799473816 
744	-1.88587878714813 
745	-2.29132272196625 
746	-2.20400216046771 
747	-3.57887133492371 
748	-3.64737301166867 
749	-3.43733316721129 
750	-3.76589779674551 
751	-2.26032163422172 
752	-2.22032704622963 
753	-3.88138183073004 
754	-3.39660244197106 
755	-2.89851029582301 
756	-2.46223001155323 
757	-1.63742234955773 
758	-2.4037667267268 
759	-3.48063850645714 
760	-3.64156158800836 
761	-3.42618636600825 
762	-3.32230722980523 
763	-3.30249969183455 
764	-2.68593631162939 
765	-2.49624433318616 
766	-2.21251079356209 
767	-1.15559504806001 
768	-3.17785061229641 
769	-5.1844719093009 
770	-4.80736021458499 
771	-4.35570873854155 
772	-3.68876028117517 
773	-3.2095815500046 
774	-3.93373913367211 
775	-3.28742442285626 
776	-2.23388957816448 
777	-2.54835519266212 
778	-2.01955369716461 
779	-1.97566783399691 
780	-3.00196314121765 
781	-2.87733782761276 
782	-3.18105040235793 
783	-3.64591872811035 
784	-2.51977197025901 
785	-2.91711715365827 
786	-3.88393939787645 
787	-3.58254198152332 
788	-2.10427774641399 
789	-1.98426818256097 
790	-3.61907574827374 
791	-2.42179230297388 
792	-2.97401830870725 
793	-4.34251504152535 
794	-2.40694910310342 
795	-2.39138444745131 
796	-2.97607302201219 
797	-2.29051095160437 
798	-2.73597160347494 
799	-3.46116100478903 
800	-3.77184865331149 
801	-3.32550918107736 
802	-2.48091219009898 
803	-2.10664835213612 
804	-3.01973774326242 
805	-1.60987810214795 
806	-0.544050252779706 
807	-1.83762500955938 
808	-2.27559001020398 
809	-2.17132188724479 
810	-2.04172554408348 
811	-2.68335518211772 
812	-2.69207343941165 
813	-2.62878440565969 
814	-3.23324251038569 
815	-1.31640860599283 
816	-0.531434837894233 
817	-2.46650348859284 
818	-2.823023178611 
819	-2.77118447645608 
820	-2.78793585719496 
821	-3.06920745646077 
822	-3.88490708886165 
823	-3.83143711024547 
824	-2.24502666490579 
825	-3.45683436656092 
826	-3.36787159093973 
827	-1.27800904063016 
828	-1.7895118509858 
829	-2.93894605529913 
830	-3.59936787787384 
831	-3.12057848275764 
832	-4.12375110911681 
833	-4.07066795389856 
834	-2.15996463139294 
835	-4.2242121864534 
836	-5.13485256974958 
837	-3.42161727712598 
838	-0.529617472615126 
839	-1.85693350178262 
840	-3.85108477453205 
841	-2.37198020605573 
842	-2.40657701974408 
843	-3.418463789863 
844	-4.51797712303253 
845	-4.66504952401588 
846	-3.75884288509509 
847	-2.51116559605144 
848	-2.01538364556436 
849	-2.44691181820483 
850	-3.07539106377546 
851	-3.26262311732359 
852	-2.89888767076892 
853	-2.10386376942226 
854	-1.75934328119019 
855	-3.20074010892344 
856	-2.32839040421592 
857	-1.6672773992135 
858	-3.61147646543371 
859	-3.60188334701047 
860	-2.55856012480953 
861	-1.75048070139329 
862	-2.78728647529728 
863	-3.88107218836197 
864	-3.79328192591319 
865	-2.07929313893053 
866	-2.48983133321289 
867	-2.47066133913936 
868	-1.05709215868857 
869	-1.61229899695724 
870	-2.77954473703638 
871	-3.42678505615602 
872	-2.61713813510961 
873	-2.72752310237211 
874	-3.44619353001034 
875	-3.78609862406179 
876	-1.76755461826358 
877	-1.69069703802791 
878	-3.30064954468776 
879	-2.71420207319321 
880	-2.55445720905772 
881	-2.39414803547993 
882	-1.64867236145217 
883	-1.82774037282383 
884	-1.93108631766244 
885	-1.79109442448951 
886	-2.29277429145121 
887	-2.3577958466509 
888	-2.38309731065252 
889	-3.01335923913744 
890	-3.67808160439992 
891	-3.79985633979468 
892	-3.24081828969197 
893	-2.46666431630511 
894	-2.00642543920182 
895	-2.4317230545139 
896	-3.91251403453007 
897	-4.01069626883269 
898	-3.24581559115598 
899	-2.31530188868084 
900	-1.55889080817484 
901	-1.27689269286441 
902	-1.63801493115824 
903	-2.54402975684041 
904	-2.4166373045424 
905	-1.94298474138663 
906	-1.81298846323205 
907	-1.93946645667523 
908	-2.30506354797497 
909	-2.82344854268189 
910	-3.34993692781442 
911	-3.76718232511556 
912	-3.43656038746044 
913	-2.40934064081304 
914	-2.84086296902379 
915	-2.90418721647131 
916	-2.37354196299935 
917	-2.10317988259038 
918	-2.39274131704836 
919	-3.07547066455103 
920	-3.68851666874717 
921	-3.23896870827541 
922	-2.31420751954115 
923	-1.66445667797758 
924	-2.10075146343913 
925	-2.87124124041119 
926	-2.75094384758651 
927	-1.450669964045 
928	-1.50410107826943 
929	-3.28601578110048 
930	-4.89570492306595 
931	-3.02320279572108 
932	-3.09748909799086 
933	-3.06800491519282 
934	-1.26963433178747 
935	-1.66938942912763 
936	-1.50600057227607 
937	-0.698244407197181 
938	-1.02469164984003 
939	-2.03626557097971 
940	-2.91646706897452 
941	-3.07410156556869 
942	-2.83018326163283 
943	-1.33868835848852 
944	-0.127847098946069 
945	-1.87488587413939 
946	-2.64454898967298 
947	-2.12429108474415 
948	-1.24965836627298 
949	-2.60018346213173 
950	-3.83790396322635 
951	-3.97876696968151 
952	-2.96223377154502 
953	-2.46712781901659 
954	-2.24569034378494 
955	-2.08666534295229 
956	-2.49591825460476 
957	-2.94580505437099 
958	-3.15222366940342 
959	-2.99800053787773 
960	-2.79928453195542 
961	-2.72308450326934 
962	-2.69825122062133 
963	-2.24391742422582 
964	-2.64444527141634 
965	-3.38749598112983 
966	 1.83040659727499 
967	 0.652863001927582 
968	 6.71797448755177E-02 
969	 0.119383936898775 
970	 0.205137794650504 
971	-4.36592688093153E-02 
972	 1.11483219938638 
973	 1.97231840627246 
974	 1.36570433154935 
975	 2.32851719649552 
976	 6.25632844688583 
977	 5.6378032880625 
978	 2.91755414658067 
979	 2.37434504413473 
980	-0.156271915160399 
981	-3.63751508413395 
982	-1.8913573892708 
983	 0.118351286525324 
984	 1.7526434553181 
985	 4.59017904142229 
986	 4.95822739718966 
987	 2.02869799490051 
988	 2.88494737615428 
989	 5.3141092067291 
990	 4.73025050107027 
991	 4.48917232999695 
992	 4.11044949791509 
993	 0.322114578399 
994	-0.133803779016457 
995	 2.96898361394901 
996	 5.33567635047069 
997	 4.4451260129808 
998	 3.11323100531799 
999	 2.72406595134494 
1000	 0.5082468849363 
1001	-1.97507429722104 
1002	-4.74042271137599 
1003	-6.61557511998375 
1004	-5.70264261633255 
1005	-3.57263432992306 
1006	 5.64644552221484 
1007	 7.26586213852158 
1008	 6.29449516041497 
1009	 3.82264714363573 
1010	-0.690065777507592 
1011	-3.78731925921404 
1012	-0.675382023448749 
1013	 0.506100210254681 
1014	-1.25772406821576 
1015	 1.19474109758366 
1016	 0.757936297862916 
1017	 0.809978152679358 
1018	 5.35172741631311 
1019	 4.94503272588569 
1020	 2.72647525970639 
1021	-0.27114968192724 
1022	-2.77943000006561 
1023	-3.81856393391356 
1024	-3.51892479393093 
1025	-3.5111129489191 
1026	-1.31684396479644 
1027	 0.812253992870786 
1028	-0.223160360904468 
1029	-1.76063884354017 
1030	-1.57819326784816 
1031	-2.0635397626915 
1032	-1.61379624109135 
1033	 1.37692465556281 
1034	 2.95054023266323 
1035	 2.98283237132013 
1036	 3.54447380066443 
1037	 2.46138261330812 
1038	 6.02184125842684E-02 
1039	-1.45703451329059 
1040	-2.890575127185 
1041	-5.62613892882038 
1042	-4.559145111132 
1043	-0.204518639197761 
1044	 0.691669943711799 
1045	 2.87141737094344 
1046	 4.31801310865983 
1047	 3.79638501514043 
1048	 1.6130028567089 
1049	-0.931763147759086 
1050	-3.31579752277647 
1051	-6.2560936553728 
1052	-6.87052196949263 
1053	-6.62009909181457 
1054	-4.866769569057 
1055	-4.86881132275604 
1056	-6.05776692010111 
1057	-5.32841695007275 
1058	-3.01138475556064 
1059	-3.10858308634595 
1060	-3.67477672285151 
1061	-3.28655899629889 
1062	-3.57453403034171 
1063	-4.28775941236504 
1064	-3.14055779145155 
1065	-0.16898147707041 
1066	 0.631246277639438 
1067	 0.887652420561158 
1068	 0.307421643870962 
1069	-0.915851033239038 
1070	-1.2408039219022 
1071	-1.33864248676887 
1072	-1.979348875069 
1073	-3.53438243521682 
1074	-3.99923342937688 
1075	-5.58374225618469 
1076	-5.63167562860155 
1077	-2.59861136809049 
1078	-1.97186059147422 
1079	-3.62973067626678 
1080	-2.47063480618123 
1081	 1.40607293834851 
1082	 1.48159387949579 
1083	 0.544404009120101 
1084	-0.037276278218322 
1085	-0.913483283677449 
1086	-1.89847030952078 
1087	 0.487687778516951 
1088	 2.44129508589357 
1089	 1.58557543663806 
1090	-1.47381970221636 
1091	-3.18365930507775 
1092	-5.84128102277576 
1093	-5.81750590902252 
1094	-3.96514837850297 
1095	-3.07916440268781 
1096	-0.572411466117601 
1097	 0.03039270551392 
1098	-1.86248753634817 
1099	-1.61715294323054 
1100	-1.51897818495368 
1101	-7.23240556762828E-02 
1102	 6.22922167500168 
1103	 7.44576305872213 
1104	 6.27178788256287 
1105	 4.96999955672293 
1106	 0.743519247291749 
1107	-3.56741932780891 
1108	-2.15286011679265 
1109	-0.40402052559227 
1110	 0.499978916644495 
1111	 3.88496822252623 
1112	 3.37572232875505 
1113	-0.470808072405664 
1114	-2.20005648223849 
1115	-5.26325047178833 
1116	-6.41803062418897 
1117	-6.14256606309374 
1118	-5.31170905744308 
1119	-3.52485056743083 
1120	-1.82526153345599 
1121	 2.04767083151958 
1122	 3.08643143297023 
1123	 2.07563613000379 
1124	 2.23995245731746 
1125	 0.559267046435782 
1126	 1.14373249667643 
1127	 1.77702372219039E-02 
1128	-1.21788463429818 
1129	-1.16119679070763 
1130	-1.83469768317393 
1131	-1.39029683249271 
1132	 2.73312499874298 
1133	 2.17358393670838 
1134	-1.38187173007612 
1135	-3.05831775158052 
1136	-6.31481825515877 
1137	-8.06164141825601 
1138	-8.18794487330785 
1139	-8.71223067454707 
1140	-9.36051970253996 
1141	-9.67088279518872 
1142	-10.1496275150254 
1143	-9.42727845077588 
1144	-7.8851958142477 
1145	-6.26616439323509 
1146	-3.17150039257308 
1147	-0.749155543321332 
1148	 1.43348415689562 
1149	 4.32837067199555 
1150	 3.46134012160511 
1151	 4.73286890764665E-02 
1152	-0.924312591641722 
1153	-4.25818383203308 
1154	-4.43750310006003 
1155	 0.445418395265887 
1156	-0.249356713658473 
1157	-3.40032804994038 
1158	-5.37814155700859 
1159	-10.9915961987785 
1160	-12.3220836939825 
1161	-10.8958529260389 
1162	-9.79471003949644 
1163	-6.17434776423555 
1164	-4.05426955705828 
1165	-1.61886612250477 
1166	-8.88175183249661E-02 
1167	 2.18191319525654 
1168	 0.412276956679856 
1169	-0.951080009556575 
1170	-1.63009724594835 
1171	-2.36169374244527 
1172	-3.4576093199721 
1173	-3.51219596038025 
1174	-2.80096014715823 
1175	-3.02961153162287 
1176	-3.81697194444256 
1177	-3.1083756097027 
1178	-0.993909926556808 
1179	-0.786023107241418 
1180	 0.225610276985652 
1181	-0.835973807148729 
1182	-7.10336922618584 
1183	-7.78514205962897 
1184	-5.42035377850484 
1185	-4.29628454341221 
1186	 0.502230624167198 
1187	 2.16487141087742 
1188	 1.0033485491221 
1189	 0.182820403097211 
1190	-2.04291189320118 
1191	-3.76916665178446 
1192	-1.88591838360065 
1193	-1.04939788333554 
1194	-1.48715381026211 
1195	 0.149210990525623 
1196	 0.392410395957831 
1197	-2.72945116734233 
1198	-1.73780690071534 
1199	 2.26532596494467 
1200	 3.43489073541681 
1201	 5.62469307559491 
1202	 5.56285166821864 
1203	 2.91879671568842 
1204	 2.04606843799112 
1205	 1.17270645877861 
1206	-0.24380834671881 
1207	-1.94655045777518 
1208	-3.36025761473029 
1209	-5.13624080986566 
1210	-6.98387282042039 
1211	-10.3687991528814 
1212	-9.42348585519267 
1213	-7.47005422222928 
1214	-6.08547942977969 
1215	-3.84224970943651 
1216	-3.29595841644092 
1217	-2.80820279213832 
1218	-2.10274846091225 
1219	-0.686625144710813 
1220	 2.50078353148612 
1221	 3.37091889453783 
1222	 1.58624365329971 
1223	 3.43249276980703 
1224	 8.27601137570597 
1225	 8.11503403670444 
1226	 7.15379153002282 
1227	 5.6860060181587 
1228	-1.01860846399946 
1229	-3.23836934483259 
1230	-1.78087634954257 
1231	-2.40662266619817 
1232	-4.10720137975267 
1233	-4.03450107562254 
1234	-2.9437453608669 
1235	-1.8197697272043 
1236	 1.55090916803473 
1237	 2.85288871727306 
1238	 1.05374488936648 
1239	 5.23385031884591E-02 
1240	-1.75021207844353 
1241	-2.4516788005901 
1242	-0.15087698015368 
1243	-0.374082953596129 
1244	-0.55741528448937 
1245	 0.812201247580266 
1246	 0.229813595971872 
1247	 1.45752309606969 
1248	 1.74019818803061 
1249	 5.74732488038233E-02 
1250	 0.526297282378857 
1251	 1.35090756814642 
1252	 1.17919737961255 
1253	 2.60795578802791 
1254	 2.81563359009942 
1255	 1.90667655453321 
1256	 0.739138937037344 
1257	-0.932835032746924 
1258	-1.80613471155889 
1259	-4.99030954126752 
1260	-5.81569664481343 
1261	-2.93975709282703 
1262	-3.15399798515728 
1263	-8.16370145243141 
1264	-6.23430659366527 
1265	-3.92492208578159 
1266	-4.01467531560242 
1267	 1.5248961778311 
1268	 5.56268667627375 
1269	 3.71982492216093 
1270	 2.99803980564224 
1271	 2.06494966378464 
1272	-0.580309562310238 
1273	-3.53134231341384 
1274	-5.63695414027806 
1275	-5.1133389206913 
1276	-5.46747972254769 
1277	-3.83446078620961 
1278	-0.343974451033635 
1279	 5.30060823772726E-02 
1280	-1.91827065987061 
1281	-2.63162121040827 
1282	-6.05331018202876 
1283	-5.74422188010537 
1284	-1.69058212658687 
1285	-9.20921045967697E-02 
1286	 2.6120892062214 
1287	 3.72369607114729 
1288	 2.82660422831657 
1289	 1.92033841851002 
1290	 2.50391079558802 
1291	 2.20183129745332 
1292	 1.80695333439268 
1293	 1.11483773013223 
1294	-1.40971495769303 
1295	-2.00798624167809 
1296	-0.616698161151095 
1297	 0.763684742100937 
1298	 3.14740635582244 
1299	 2.34893156223507 
1300	 6.95561966137172E-02 
1301	-0.891920534385216 
1302	-2.05567392826419 
1303	-1.10785625573924 
1304	-1.02725721365218 
1305	-2.89461015090725 
1306	-4.52027917574632 
1307	-8.3362748897786 
1308	-9.54358718718539 
1309	-7.86060178576128 
1310	-8.52591269940297 
1311	-5.98061241372486 
1312	-4.51125678842458 
1313	-3.93760674971763 
1314	-4.03493337198599 
1315	-5.29368527590893 
1316	-5.11928191693025 
1317	-4.37911440980716 
1318	-2.04856802064079 
1319	 1.83542288800732 
1320	 6.28572408611906 
1321	 9.51101799752953 
1322	 9.5209940976075 
1323	 8.24524015096685 
1324	 6.99996150654383 
1325	 4.90703824393179 
1326	 2.78397462168731 
1327	 2.59237500145815 
1328	 1.26486945473826 
1329	-1.34827988322151 
1330	-1.52231159722502 
1331	-3.00851255080691 
1332	-3.77212354243475 
1333	-0.924301647970937 
1334	-2.12187733162404 
1335	-1.91831333214313 
1336	 0.981665484207267 
1337	 1.80699868334976 
1338	 4.24241550156569 
1339	 4.8025712745488 
1340	 3.21988400786863 
1341	 1.01677946341294 
1342	-1.0461152448651 
1343	-1.35350548205654 
1344	-3.46197893884765 
1345	-4.92637309562789 
1346	-3.05023980643413 
1347	-1.20119137875263 
1348	 3.43533151974056 
1349	 3.88586594415632 
1350	 2.67564629595683 
1351	 1.59413372094933 
1352	-3.51027208599717 
1353	-4.26253917519121 
1354	-2.25230899962239 
1355	-0.562565406226103 
1356	 1.20054738360768 
1357	 1.74033175149005 
1358	 1.94590465886662 
1359	 0.466112223427434 
1360	-1.45178718637625 
1361	-2.26830740830753 
1362	-4.77129822618206 
1363	-6.58505347171916 
1364	-7.26993430100102 
1365	-7.4942211853088 
1366	-4.8000674573797 
1367	-1.62667882178116 
1368	 1.09554588647381 
1369	 3.15929252355483 
1370	 3.67549702835059 
1371	 4.77520518720413 
1372	 3.36791159989613 
1373	 2.93078132862445 
1374	 3.28335961633543 
1375	 3.33624572545574 
1376	 5.11520569297865 
1377	 5.16801678031042 
1378	 7.32106110122827 
1379	 6.52385981174247 
1380	 3.63044695639129 
1381	 4.63695965858716 
1382	 2.38610115157991 
1383	 1.81875714817239 
1384	 5.64146367126373 
1385	 5.33475679752289 
1386	 3.82678552517696 
1387	 3.12658635819587 
1388	 1.45771678185301 
1389	 2.25998147640932 
1390	 2.07643429489945 
1391	 3.06465988885698 
1392	 1.42453018995923 
1393	-4.26422970026202 
1394	-5.5327659064171 
1395	-6.20440380370532 
1396	-2.93095434132743 
1397	 0.887900305689144 
1398	 4.39195463845468 
1399	 4.53727822805992 
1400	 1.07248555611123 
1401	-2.01069508896922 
1402	-5.23349017868365 
1403	-8.15816474732561 
1404	-8.60481352796574 
1405	-7.10357502681224 
1406	-7.92684327699891 
1407	-6.16735693208424 
1408	-3.61879667419137 
1409	-4.45328061237762 
1410	-3.3891816076945 
1411	-2.66457834665952 
1412	-0.889976661154307 
1413	 1.58450038353555 
1414	 3.55155487490174 
1415	 4.33588118829809 
1416	 2.15853624862136 
1417	 1.23589010597145 
1418	 1.08648750366993 
1419	 1.10051584957903 
1420	 2.45648831949999 
1421	 3.44817709492043 
1422	 3.78300087677367 
1423	 2.12479700860558 
1424	 1.11206635905036 
1425	 1.03258495848398 
1426	 0.240172412201632 
1427	 2.80032687194617 
1428	 3.88203625542827 
1429	 3.40592427474251 
1430	 2.27151562779838 
1431	 0.379644360380108 
1432	-0.306753568518057 
1433	-4.847215881773 
1434	-6.9416493800717 
1435	-6.77584030261147 
1436	-8.68981287115496 
1437	-8.2092891815897 
1438	-7.01726445013148 
1439	-5.48105624732287 
1440	-2.34601946169749 
1441	 0.894013351243779 
1442	 1.37299234309805 
1443	 0.541037093804053 
1444	 1.26880215403991 
1445	 1.5275806121445 
1446	 2.71502689178726 
1447	 3.80361851677312 
1448	 4.58175841930645 
1449	 4.12049730054188 
1450	 2.92606674695038 
1451	 1.09067902715581 
1452	-1.11621071704867 
1453	-4.51499775416329 
1454	-8.65984294298211 
1455	-8.68703031753835 
1456	-8.22322196287439 
1457	-5.73407476507706 
1458	-2.33226027061629 
1459	-2.20139603828021 
1460	-3.50422322837091 
1461	-4.84987355677091 
1462	-5.41395991469138 
1463	-3.67587020652116 
1464	-1.01849510397882 
1465	-0.25493547944169 
1466	 0.621343151216498 
1467	 0.784080928136554 
1468	-0.8951183541148 
1469	-2.37955324298736 
1470	-6.40121114214967 
1471	-8.70274391136529 
1472	-6.05735610361522 
1473	-2.91695186038411 
1474	 0.918718338534512 
1475	 1.70623457010174 
1476	-0.870265159105482 
1477	-2.99701231277509 
1478	-2.51064109401981 
1479	 0.621778193376473 
1480	 2.45304643820175 
1481	 4.64545990686781 
1482	 4.38974118185603 
1483	 1.83198024836066 
1484	 0.862810983227529 
1485	-4.20512061010684E-02 
1486	 1.59600152919056 
1487	 3.71347261987873 
1488	 5.14572945213889 
1489	 5.28663341491845 
1490	 1.93429496079447 
1491	-0.286380684343014 
1492	-1.10633502569641 
1493	-3.52352077865886 
1494	-5.83072189501261 
1495	-7.71434474330902 
1496	-9.49824368445046 
1497	-8.55557800696097 
1498	-6.06435303785801 
1499	-3.73900357375336 
1500	-1.52900944183099 
1501	-1.98816007318698 
1502	-4.67587141105136 
1503	-6.23194703727152 
1504	-6.5286816974697 
1505	-5.45933631238381 
1506	-2.73574181689404 
1507	 0.11854899993404 
1508	 2.41078415843847 
1509	 2.4331444557801 
1510	 1.76402594815493 
1511	 2.5327968405012 
1512	 1.27976249940484 
1513	 1.05706666084028 
1514	 0.77200113293135 
1515	-2.94555873376812 
1516	-2.91312044200499 
1517	-2.13605216603694 
1518	-1.36999285271039 
1519	 0.780504921886348 
1520	 0.769083746054206 
1521	 0.806989381079915 
1522	-1.50855925554527 
1523	-2.40370967165797 
1524	-1.6390620000803 
1525	-3.23596031296367 
1526	-0.625275904243948 
1527	 3.11651565961262 
1528	 4.65422585738169 
1529	 5.59400541039199 
1530	 5.45801696636021 
1531	 4.79356312538628 
1532	 3.10320090291516 
1533	 3.9938772272503 
1534	 5.79280026499427 
1535	 6.42184398502237 
1536	 6.72027198681864 
1537	 4.7513042259792 
1538	 0.141791294936585 
1539	-3.71451196665742 
1540	-4.09275885472217 
1541	-4.2884196353009 
1542	-3.79325832691851 
1543	-4.11697730888652 
1544	-6.56966638999578 
1545	-7.99425641424057 
1546	-8.45699641552671 
1547	-8.0214312415857 
1548	-7.21983730269988 
1549	-6.63227251850719 
1550	-4.70352820769977 
1551	-3.78964437063853 
1552	-3.0824963795143 
1553	-0.396986325216607 
1554	 0.69609246620561 
1555	 3.03274118747928 
1556	 3.94862279300766 
1557	 1.41305722427681 
1558	 0.633492836823391 
1559	 0.715670638438098 
1560	 0.431808867921904 
1561	 2.23868172622117 
1562	 4.3854154168937 
1563	 3.27870065633166 
1564	 2.16354286054993 
1565	 0.490333463278646 
1566	-3.75320241842614 
1567	-5.98183248676459 
1568	-3.3966254755199 
1569	-1.93609952419108 
1570	-1.51880184245259 
1571	-0.073325891745487 
1572	-0.214450961148529 
1573	 0.318457546796931 
1574	 2.13936805803355 
1575	 4.26077440162553 
1576	 3.52623490147867 
1577	 2.92807837837404 
1578	 3.77452127460221 
1579	 3.73028145288245 
1580	 5.47494996575912 
1581	 5.60250703065192 
1582	 5.3583758151917 
1583	 5.02099910220489 
1584	 1.87369486947212 
1585	-6.66959409543794E-02 
1586	-1.72329589058658 
1587	-3.85410793390915 
1588	-4.39261227375888 
1589	-5.02926765034375 
1590	-7.48690393095122 
1591	-7.95451426208138 
1592	-7.54807035000496 
1593	-7.80258067007326 
1594	-7.24722843736524 
1595	-8.9164808069941 
1596	-8.60617597703003 
1597	-8.20244400875076 
1598	-6.00010573176192 
1599	-0.442702236409314 
1600	 0.190774716464244 
1601	 1.82469239009186 
1602	 2.7398068907887 
1603	 1.13335910772855 
1604	 2.42803222512338 
1605	 3.46087309924853 
1606	 3.2223229826653 
1607	 1.44619784120868 
1608	-0.387967329157562 
1609	-1.93014708755267 
1610	-3.81302782702825 
1611	-4.86080082956473 
1612	-5.8098891008756 
1613	-5.45617214407063 
1614	-4.08045370938119 
1615	-0.724106286000884 
1616	 3.05168516561803 
1617	 2.79558199450181 
1618	 3.56870607250094 
1619	 3.48863478061328 
1620	 1.8305447682447 
1621	 2.21520431520273 
1622	-1.48484065034741 
1623	-5.0045801012451 
1624	-5.17278241911094 
1625	-6.70063920223812 
1626	-7.10195264788649 
1627	-5.48145501204388 
1628	-5.96358992276374 
1629	-6.97463778407154 
1630	-4.35039202238389 
1631	-3.4443739361986 
1632	-4.68204368330681 
1633	-3.18731109986472 
1634	-1.13851844212253 
1635	-0.504202170473735 
1636	 1.00069425307329 
1637	 1.05887725590401 
1638	-2.92835739276743 
1639	-3.62060081387014 
1640	-1.68536110283983 
1641	-1.08673436490348 
1642	 0.530182532765581 
1643	 1.76407434798664 
1644	 1.99058061006849 
1645	 2.19610205871145 
1646	 2.57976222316486 
1647	 2.6554403745978 
1648	 2.02869354458827 
1649	 1.36150084397122 
1650	 1.34768760195924 
1651	 0.670004181095262 
1652	-1.05735305079221 
1653	-2.47227077692554 
1654	-5.67874627412511 
1655	-5.66626560467754 
1656	-3.16536295422589 
1657	-1.52032973544035 
1658	 3.05018584008807 
1659	 4.31010437156677 
1660	 2.55554600949095 
1661	 2.44824800019382 
1662	 1.36157893720046 
1663	 2.01272011890586 
1664	 5.84402466173185 
1665	 4.44284788755689 
1666	 0.964468444994575 
1667	-1.51477475958521 
1668	-8.45773031458138 
1669	-9.29548757915815 
1670	-6.0691202136569 
1671	-3.91048069012411 
1672	 1.4483527425277 
1673	 1.87910977972897 
1674	-0.793884851324001 
1675	 0.332654619769806 
1676	 0.995681644044021 
1677	 1.56201162646351 
1678	 5.2733861469879 
1679	 5.2694745929772 
1680	 1.60867141160391 
1681	 1.07403448639876 
1682	 1.69508287251988 
1683	 1.9858127987441 
1684	 1.51334484002367 
1685	 2.31873223385759 
1686	 0.696445683411012 
1687	 0.805974996944324 
1688	 0.819224230822557 
1689	 2.23988226213222 
1690	 1.22572251987783 
1691	-2.79761306438822 
1692	-4.66596051591852 
1693	-8.70051153960074 
1694	-9.27910705380472 
1695	-5.15380791756479 
1696	-2.71426368096277 
1697	 1.71031011571034 
1698	 3.60131110109715 
1699	 3.82377735978477 
1700	 3.45501559369782 
1701	 0.705640690670419 
1702	-0.536978650405487 
1703	-1.23739251138168 
1704	-2.62032410593297 
1705	-5.91251555494666 
1706	-4.70232017485396 
1707	-0.532188738647739 
1708	 1.38367994113447 
1709	 6.52781933438471 
1710	 8.27916144456735 
1711	 6.40733519241057 
1712	 5.14720181626418 
1713	 3.1239687795786 
1714	 2.31095259400739 
1715	 0.82896914641658 
1716	 2.45629120233897E-02 
1717	 0.866952697732609 
1718	 0.837335398990248 
1719	-0.120238032705641 
1720	-4.00186206674129E-02 
1721	 0.328340674424558 
1722	 1.81941285494962 
1723	 5.12616653624105 
1724	 3.99632636267593 
1725	 2.31924667357116 
1726	-2.5631201847192 
1727	-7.30855728685479 
1728	-4.28435657438441 
1729	-2.46194406947336 
1730	-0.524497643976265 
1731	 3.41059366374936 
1732	 1.96918099675912 
1733	 1.09239464476983 
1734	-1.54834524698225 
1735	-1.91659517577516 
1736	-0.8934094970408 
1737	-0.298845964495711 
1738	 3.15076517612032 
1739	 3.374499535867 
1740	-0.358092148567807 
1741	-0.486467880416869 
1742	-0.677493821771642 
1743	 0.73786170946729 
1744	 6.82164163732069 
1745	 8.93689175515691 
1746	 9.7596294041719 
1747	 8.94129312641542 
1748	 5.50869926035618 
1749	 2.80645819779019 
1750	-1.33246533446735 
1751	-2.61636341707419 
1752	-3.07338078104749 
1753	-2.44220957797555 
1754	 0.494793481795031 
1755	 0.362226886133078 
1756	-2.46266863952683 
1757	-6.89079743672256 
1758	-4.88655798931058 
1759	-10.9269336211423 
1760	-27.7648676317375 
1761	-29.4510717647993 
1762	-14.7065232522485 
1763	-9.62785672967787 
1764	-5.3108340790062 
1765	 11.5683739251707 
1766	 14.683803396899 
1767	 0.392046446051999 
1768	-4.60260350300137 
1769	-17.1770020789651 
1770	-0.911560445811825 
1771	 10.8770701276326 
1772	 6.89246831367117 
1773	 8.20973339358122 
1774	 10.7428199657918 
1775	 9.13197973506612 
1776	 5.20408498134347 
1777	 3.37401894942579 
1778	-1.34610002559154 
1779	 4.97469631987779 
1780	 0.799769967036163 
1781	-4.45113252916708 
1782	 2.33746451772488 
1783	-13.3554882046616 
1784	-19.5360925908155 
1785	-21.8772126357741 
1786	-19.3065196714253 
1787	-33.3616267207752 
1788	-27.8093107474696 
1789	-3.00313480494009 
1790	 12.7788542231939 
1791	 22.9836961147116 
1792	 26.6049964740391 
1793	 13.6614986023996 
1794	 7.22284441791574 
1795	-7.69370852029318 
1796	-15.8738516605671 
1797	-22.766610675098 
1798	-18.7511634230344 
1799	-4.81001272486343 
1800	 13.7251634897928 
1801	 24.7877237794471 
1802	 23.1645879451767 
1803	 23.7121352765678 
1804	 1.01375399101805 
1805	-3.14781475947776 
1806	-8.33030239714492E-02 
1807	 18.0775885864965 
1808	 30.1871511777772 
1809	 37.5008287579641 
1810	 38.2959515567195 
1811	 31.0491803002245 
1812	 26.0296944744963 
1813	 9.46246111773885 
1814	 2.1105212438267 
1815	-2.50166107189781 
1816	-3.15386466378987 
1817	-5.59828875618752 
1818	 10.1003358938576 
1819	 10.226884485923 
1820	 19.2536926198506 
1821	 19.5024748236485 
1822	 7.79884496581719 
1823	 6.47056406867662 
1824	 11.6639186717369 
1825	 10.6377245872234 
1826	 8.87903158258663 
1827	 9.22282566827163 
1828	 4.06533324135328 
1829	 4.65910707547206 
1830	 4.63302560498878 
1831	 10.5023989768927 
1832	 10.8409270076325 
1833	 8.1850541611584 
1834	 7.02396262953117 
1835	 5.06371699631878 
1836	 3.21773903168828 
1837	 4.64035825480052 
1838	 2.14497222871544 
1839	-4.88871076841867 
1840	-10.3511911767139 
1841	-12.5409492615194 
1842	-18.5830946813995 
1843	-20.8020552220964 
1844	-12.8289484453006 
1845	-12.5188801311948 
1846	-10.7945892315095 
1847	-13.2261200422617 
1848	-22.6303811785812 
1849	-35.9587738479849 
1850	-28.7780104864176 
1851	-33.0195969525807 
1852	-30.0199439992524 
1853	-14.0094686523656 
1854	-9.12715522572126 
1855	-11.3221458901166 
1856	-7.31277330802768 
1857	-2.87582279432143 
1858	 6.72676811098946 
1859	 5.65789329712398 
1860	-1.80745901685778 
1861	 1.02976034468003 
1862	-7.16822522045045 
1863	-11.7827220716195 
1864	-6.81511643484714 
1865	-13.256279535269 
1866	-35.5759698024435 
1867	-37.4913478971526 
1868	-34.1676798392103 
1869	-28.675117584938 
1870	-6.00993946654009 
1871	 5.10319090235851 
1872	 3.263592106498 
1873	 1.06801411803197 
1874	-5.00530922719273 
1875	-8.16217598195518 
1876	-8.52386416405153 
1877	-3.436888917338 
1878	 1.16783961905378 
1879	 9.54770078670718E-02 
1880	-4.1595882452273 
1881	-9.68179489363918 
1882	-21.3583487217145 
1883	-32.0273893275058 
1884	-46.5970462412976 
1885	-58.7350939841334 
1886	-55.6415935381453 
1887	-51.7219489356951 
1888	-39.491190468108 
1889	-28.1151946116012 
1890	-16.8965751585171 
1891	-6.81740569373852 
1892	-11.5981778985951 
1893	-7.02634562532895 
1894	-0.442180568456791 
1895	-10.1083295866881 
1896	-3.29127660340074 
1897	-1.02965897833112 
1898	-0.832543617826338 
1899	-3.55662487494956 
1900	-6.45716809789952 
1901	-12.2741205857577 
1902	-14.5935320534499 
1903	-8.2018761938718 
1904	 4.11908607013832 
1905	 13.0568984393316 
1906	 9.447703560666 
1907	 4.53298019027036 
1908	 1.56643970411041 
1909	-9.52259319827058 
1910	-10.4181553755725 
1911	-0.134564167374428 
1912	 1.97967943344028 
1913	 4.62751286878563 
1914	 5.2328921193276 
1915	 3.36754808183286 
1916	-1.98977115124241 
1917	-16.8586267305766 
1918	-27.4312023874704 
1919	-32.030616141873 
1920	-40.2881682328863 
1921	-42.1062770327848 
1922	-30.1187220594179 
1923	-23.3881797609512 
1924	-17.4057829381761 
1925	-8.10119514393738 
1926	 10.947680297282 
1927	 11.1066025537627 
1928	 19.4218043844232 
1929	 21.1807326076187 
1930	 20.2086534702777 
1931	 12.2070006558432 
1932	 10.3500391640325 
1933	 11.0496047484451 
1934	 6.98362475729158 
1935	 2.93989060495065 
1936	-3.1368306368664 
1937	-26.265559856168 
1938	-30.3886155239792 
1939	-28.4508039835309 
1940	-11.6305960293256 
1941	-3.33768580866741 
1942	 21.8473075685376 
1943	 20.8721276020537 
1944	-3.98447359588127 
1945	-6.43049003393654 
1946	-12.2934842204854 
1947	-9.04848710268199 
1948	 17.1935474211961 
1949	 26.39074096331 
1950	 31.189056773468 
1951	 32.823678552211 
1952	 29.316000655528 
1953	 19.9068872522573 
1954	 12.2908658563113 
1955	-3.33686910445691 
1956	-4.01069131546161 
1957	 2.9983257646552 
1958	 5.26308728937105 
1959	 19.1619789122638 
1960	 20.9369716809299 
1961	 9.62467953081409 
1962	 5.53966710459809 
1963	-3.05751504892602 
1964	-4.0002582833895 
1965	-5.98795018548518 
1966	 8.81037328797316 
1967	 15.2338440749981 
1968	 29.8724343659657 
1969	 31.3546297561305 
1970	 26.6433888019027 
1971	 20.7729021426806 
1972	 2.42399587850599 
1973	-3.46422388040279 
1974	-5.10404859938878 
1975	-6.47613637430895 
1976	-2.74230767559547 
1977	 1.82738398087852 
1978	 8.66458617763407 
1979	 15.6323672931828 
1980	 15.9436497061339 
1981	 15.091107289977 
1982	 13.77132682434 
1983	 4.56387739554023 
1984	 2.33487767259628 
1985	 6.49287166358515 
1986	 6.38647575053798 
1987	 6.19279358796258 
1988	 2.83793034564767 
1989	-5.88372088166471 
1990	-8.96214422598848 
1991	-10.8833259694833 
1992	-13.3603383518313 
1993	-10.1539414553519 
1994	-9.57295254686108 
1995	-10.0829942878593 
1996	-11.8447810239075 
1997	-13.0940757346206 
1998	-17.1641479418309 
1999	-17.0544683672174 
2000	-15.3258305590359 
2001	-13.1663161968964 
2002	-6.10159832605305 
2003	-4.10777945282128 
2004	 2.10316523764233 
2005	-7.63555534252404 
2006	-18.0276976103731 
2007	-16.5988150293979 
2008	-18.2253827530089 
2009	-10.3351216450161 
2010	-8.79850651224854 
2011	-4.09082890507229 
2012	-4.66992494757427 
2013	-13.7629438849752 
2014	-15.2421680106125 
2015	-15.18384256522 
2016	-16.8636903344885 
2017	-15.7501965718691 
2018	-16.857781917048 
2019	-23.4121322352804 
2020	-21.6103721204357 
2021	-23.6539267586155 
2022	-11.9861967036313 
2023	 6.80796846192979 
2024	 18.4477854695907 
2025	 24.8281223667421 
2026	 29.4345802833225 
2027	 30.4435891243994 
2028	 23.8419180156074 
2029	 20.578432652392 
2030	 17.8508291770216 
2031	 13.5225043983171 
2032	 8.12563994446661 
2033	-1.86989066701765 
2034	-4.07153351378098 
2035	-2.24011980586094 
2036	-5.90732975260381 
2037	-12.2158814518707 
2038	-20.1632858710457 
2039	-30.3887626356261 
2040	-25.9551353410634 
2041	-14.7132282105402 
2042	-9.89538816609869 
2043	-1.50357370682985 
2044	 2.88897360396835 
2045	 4.04848930969568 
2046	 2.71006075659996 
2047	-1.48358953972285 
2048	-5.18944894525543 
2049	-12.012438397968 
2050	-24.0312551792204 
2051	-20.9518617139264 
2052	-19.1638060555664 
2053	-12.2582348524629 
2054	 6.40254330961798E-03 
2055	-0.3958765925926 
2056	-1.16584261867415 
2057	-6.34242015927919 
2058	-27.884984668709 
2059	-39.265957494076 
2060	-54.00813993936 
2061	-58.391553877718 
2062	-52.694116700595 
2063	-44.2998820087336 
2064	-28.6323658122395 
2065	-16.477311682058 
2066	-0.213595863212284 
2067	 3.86094328647143 
2068	 1.86744281280822 
2069	 8.35056293201689 
2070	 16.5175909596789 
2071	 19.0868404580443 
2072	 21.8163362424514 
2073	 25.4817156288703 
2074	 18.5373161868605 
2075	 12.9169349447189 
2076	 8.80654169959208 
2077	 7.80949221734256 
2078	-0.761802252132297 
2079	-14.9445435463609 
2080	-21.9229005119889 
2081	-31.1908188357508 
2082	-38.2075785367079 
2083	-24.3954199712318 
2084	-14.1713632432631 
2085	-4.4448216340102 
2086	 5.30002239028221 
2087	-2.75051044145248 
2088	-3.99492423017162 
2089	-11.0227333741561 
2090	-15.6905257704535 
2091	-7.98862802772581 
2092	-4.51794819410934 
2093	 3.62485014920169 
2094	 8.48803619767507 
2095	 9.90090013178431 
2096	 8.08812886000402 
2097	 1.48133347803008 
2098	-14.2831694482361 
2099	-16.809034303582 
2100	-19.7328463505196 
2101	-24.9343930749573 
2102	-16.4750751968707 
2103	-8.42622087553542 
2104	-3.42688756865327 
2105	 5.38216384057506 
2106	 9.34297316307246 
2107	 4.32815872267795 
2108	 2.31274044302374 
2109	 2.70180261518092 
2110	 3.94606046173423 
2111	 12.1424348508986 
2112	 11.7882285723891 
2113	 1.58934105416133 
2114	 2.93525586133924 
2115	 9.98050622653102 
2116	 13.0915901062241 
2117	 22.2947860422428 
2118	 31.8640344608592 
2119	 42.7902054497077 
2120	 41.6310949487124 
2121	 38.8178476866104 
2122	 36.2703802040624 
2123	 19.7436985515171 
2124	 13.2352358302914 
2125	 18.672342258442 
2126	 21.7074008391258 
2127	 31.76473641873 
2128	 28.8081325206595 
2129	 21.2929839340703 
2130	 14.1489976291404 
2131	-2.15155702052105 
2132	-10.5315091693847 
2133	-10.2011684298913 
2134	-19.8249065869749 
2135	-26.1933897750603 
2136	-29.9310243643332 
2137	-30.0994251510205 
2138	-30.7988522340006 
2139	-26.447669111348 
2140	-15.9287605200819 
2141	-3.22506114065479 
2142	 2.44937329329736 
2143	 12.2545108211056 
2144	 27.8574626072595 
2145	 31.7503339342295 
2146	 45.4768721171668 
2147	 57.3283537138906 
2148	 55.7040168536062 
2149	 51.2409463875282 
2150	 29.8488334584906 
2151	 15.1762144767898 
2152	 13.1968078016767 
2153	 12.2569102261922 
2154	 17.2525768506243 
2155	 1.19567407057379 
2156	-22.3328015865016 
2157	-33.2507292034661 
2158	-39.5896549730923 
2159	-34.4938427176318 
2160	-29.5733898984274 
2161	-20.6006354514145 
2162	-19.0591796287264 
2163	-20.0648096569266 
2164	-21.2713357329034 
2165	-19.2250248585058 
2166	-7.4610444296991 
2167	 3.29924215106079 
2168	 11.4261834535288 
2169	 13.6475277022354 
2170	 4.87901613991928 
2171	-1.38778708009152 
2172	-1.7823990111392 
2173	-0.234485812729154 
2174	 8.35340190085453 
2175	 20.7308928512974 
2176	 29.8490636980703 
2177	 31.5543255191092 
2178	 30.968974083226 
2179	 29.1438536829385 
2180	 20.7008399663903 
2181	 12.9555593052019 
2182	 15.1438582235757 
2183	 15.2569546072868 
2184	 17.2668695016184 
2185	 18.4777253935119 
2186	 19.9110041982612 
2187	 17.9548005278367 
2188	 15.5751540823445 
2189	 10.1724471056845 
2190	 0.461595298516932 
2191	-11.4023586480253 
2192	-19.1321976130716 
2193	-17.0575244818453 
2194	-8.82566870308817 
2195	 3.56391927364765 
2196	 12.3940299991258 
2197	 15.3435746859961 
2198	 13.4542490161343 
2199	 12.9799737880491 
2200	 6.91192528141144 
2201	-6.07736986399358 
2202	-14.7704967910156 
2203	-18.4888412423212 
2204	-5.68777714472423 
2205	 6.98947859460439 
2206	 7.25713770458458 
2207	 7.93843623899483 
2208	 1.99233904751761 
2209	-2.04604558610237 
2210	-1.7610711425025 
2211	 8.48446182282357 
2212	 10.6113965215555 
2213	 7.38435351712696 
2214	 7.78111091955431 
2215	 12.0657788546647 
2216	 13.4517573078892 
2217	 14.6392223614614 
2218	 16.4609187918069 
2219	 16.5231441087277 
2220	 14.5807521192332 
2221	 17.2708315021809 
2222	 21.983015561924 
2223	 25.0999589892447 
2224	 27.1371684853976 
2225	 24.3800494574544 
2226	 14.4646339335247 
2227	 3.61924209032387 
2228	-6.41616692026281 
2229	-14.0907849533567 
2230	-21.9294014065981 
2231	-17.6215403469782 
2232	-12.5522200627146 
2233	-5.85592441957151 
2234	 6.26051938820547 
2235	 12.0448252722646 
2236	 15.1808369350041 
2237	 18.564812696343 
2238	 18.2294569623285 
2239	 14.3073946406703 
2240	 14.8378102860755 
2241	 8.56768951069962 
2242	 5.32390633482937 
2243	-1.48056293018603 
2244	-15.3016213593515 
2245	-19.6975090767284 
2246	-24.5698995406108 
2247	-21.2918548275414 
2248	-4.27318801485261 
2249	 4.12011704546555 
2250	 10.8452423726829 
2251	 18.6352465839498 
2252	 25.8823623620382 
2253	 32.1369928108144 
2254	 45.4525398678206 
2255	 47.6409101111046 
2256	 44.35981585588 
2257	 32.2581972391193 
2258	 18.4285944748328 
2259	 6.65581555544035 
2260	 0.284769788666309 
2261	 9.24014198953402 
2262	 17.808140171686 
2263	 20.3979165880488 
2264	 24.2461148759544 
2265	 20.7115002886404 
2266	 15.6070534109266 
2267	 13.6881010386305 
2268	 12.8060515287953 
2269	 16.568544812605 
2270	 14.3300129141518 
2271	 14.0083404558991 
2272	 13.0476465431902 
2273	-0.440407158180589 
2274	-4.07868584310604 
2275	-5.35558820723222 
2276	-8.04593600833666 
2277	-6.00554524208604 
2278	-7.61225726848539 
2279	-11.3916265330491 
2280	-22.5429575179164 
2281	-29.7017329421866 
2282	-31.4138279450887 
2283	-33.8048122990822 
2284	-30.1955061610421 
2285	-30.5770895695967 
2286	-31.9898762651864 
2287	-40.0058898440443 
2288	-35.409774491477 
2289	-24.7729226002226 
2290	-16.6464651240249 
2291	-2.53192058038754 
2292	 6.17292402167732 
2293	 9.27008052196157 
2294	 18.5240035889097 
2295	 34.37905601243 
2296	 43.3189913862864 
2297	 54.4631064630899 
2298	 56.0733042849976 
2299	 43.8285765856451 
2300	 39.0571736910381 
2301	 34.3464717146531 
2302	 26.5703846008072 
2303	 23.4652601173051 
2304	 19.6509387297156 
2305	 10.9111479896829 
2306	 2.98102807675459 
2307	-9.24241140314239 
2308	-13.6624449594195 
2309	-14.8014878983196 
2310	-15.9520596630182 
2311	-8.56784165073744 
2312	-7.25262615469203 
2313	-13.3188882927789 
2314	-6.51830103807399 
2315	-0.241295728184881 
2316	 10.3274963377093 
2317	 29.170328771513 
2318	 31.7429718194517 
2319	 36.2630598908632 
2320	 32.9849169874942 
2321	 19.3167445049927 
2322	 13.0897770131574 
2323	 8.1929113555185 
2324	 10.3403678925742 
2325	 14.298859435835 
2326	 17.7871251175473 
2327	 15.9131815839904 
2328	 15.6166603851653 
2329	 26.2781358924157 
2330	 35.6814360886102 
2331	 44.5824321138366 
2332	 52.6098719567315 
2333	 49.441595680661 
2334	 45.5782805248185 
2335	 38.099856399609 
2336	 31.0441007733671 
2337	 26.878865575114 
2338	 19.0530006341914 
2339	 17.4658145998421 
2340	 13.6306680840939 
2341	 6.0380642671724 
2342	 1.20579041262042 
2343	 5.22706266195613 
2344	 8.80069525975144 
2345	 9.39880366292029 
2346	 14.4295600995001 
2347	 14.2486293543387 
2348	 5.8999294600323 
2349	-0.885170798308373 
2350	-0.795636854888313 
2351	-6.7840505444206 
2352	-9.41398710459504 
2353	-3.46079983959359 
2354	-9.38867199113903 
2355	-22.0439158644605 
2356	-26.4496013892355 
2357	-31.3199175041096 
2358	-30.2236300554096 
2359	-18.2198583005622 
2360	-15.1988795690654 
2361	-12.238016825526 
2362	-15.1838982568772 
2363	-24.0162608772921 
2364	-20.8682768861349 
2365	-21.8133947353841 
2366	-16.470850663978 
2367	-9.42573762783102 
2368	-4.97330938323744 
2369	-1.93981313056626 
2370	-2.77326569956733 
2371	 7.89262761092335 
2372	 3.04455984422777 
2373	 1.95034612812264 
2374	 4.96115539423756 
2375	-4.20115669627724 
2376	 1.74712692219422 
2377	-2.88827978467793 
2378	-14.8299041201448 
2379	-15.9940503783864 
2380	-27.3073572407652 
2381	-23.5294585381052 
2382	-3.9466105099372 
2383	 4.73370246977413 
2384	 18.1693244949169 
2385	 17.6454216505282 
2386	 10.9446596344357 
2387	 12.2425202096641 
2388	 6.50289362396906 
2389	 16.8688427600102 
2390	 26.5588784403905 
2391	 25.1494162488724 
2392	 32.5641257907025 
2393	 28.3171205334271 
2394	 19.7547251050944 
2395	 16.3509802918016 
2396	 6.5140933531218 
2397	-6.17896310685996 
2398	-18.3753690834047 
2399	-27.5015091930213 
2400	-39.9419962382662 
2401	-46.6858381219605 
2402	-42.6917602206449 
2403	-32.1656721532888 
2404	-20.0323488320487 
2405	-8.23125341019651 
2406	-0.016877343714931 
2407	-8.40868562801854 
2408	-17.6598865136306 
2409	-18.5552487230122 
2410	-17.5246261093332 
2411	-10.3844790787019 
2412	 0.736043437806057 
2413	 0.18656072970238 
2414	-8.11892396356875 
2415	-12.1496829999502 
2416	-15.8941989197244 
2417	-21.813800194557 
2418	-18.8495256888405 
2419	-5.90674582238604 
2420	 1.03621736180843 
2421	 13.1647085572495 
2422	 26.7125497326091 
2423	 20.443073082941 
2424	 9.2818812252821 
2425	-2.94982365286805 
2426	-21.2062591414863 
2427	-24.6509101314209 
2428	-18.9911914698026 
2429	-7.68971995416335 
2430	 11.1142590259153 
2431	 18.2122154710175 
2432	 14.2421713175858 
2433	 7.42626909035891 
2434	-1.25520429706705 
2435	-5.96568202155251 
2436	 1.96687430571064 
2437	 12.3275242495798 
2438	 15.2166036599491 
2439	 19.1981162310521 
2440	 17.4136985006551 
2441	 9.42298095178911 
2442	 14.2399898421404 
2443	 12.5611848896235 
2444	 3.60764281903115 
2445	-1.28436889679317 
2446	-10.0721946662556 
2447	-8.61883911958337 
2448	-2.07378593891204 
2449	 6.02158833140497 
2450	 14.9344576814595 
2451	 11.0045303261926 
2452	 8.45189737850994 
2453	 13.0803317761103 
2454	 7.30597331930236 
2455	 4.32179750832765 
2456	 8.673826051282 
2457	 3.13193198364258 
2458	 3.70320880403094 
2459	 9.89322123107366 
2460	 6.35611046492979 
2461	 7.0434737325304 
2462	 4.90343017149075 
2463	-0.647794518648039 
2464	-0.533510736947455 
2465	-3.03643769085294 
2466	-7.48856523041904 
2467	-17.9481730174446 
2468	-20.3584992720881 
2469	-27.9770941730769 
2470	-20.4090623658753 
2471	-13.6773471181932 
2472	-15.8382814565964 
2473	-11.3375614124499 
2474	-11.6275010051155 
2475	-12.7908373028218 
2476	-1.59104410740331 
2477	 7.12240763833843 
2478	 16.942156665614 
2479	 27.6454420617466 
2480	 22.4180203807459 
2481	 17.7028367872625 
2482	 5.70876131329481 
2483	-6.33984642143643 
2484	-6.30991596839295 
2485	-4.07118765080533 
2486	 0.814578484208402 
2487	 4.23524834949132 
2488	 9.61267622683627 
2489	 17.1455609609129 
2490	 17.0338848859561 
2491	 10.2120895188538 
2492	 0.597510642486418 
2493	-8.33315953054071 
2494	-10.0913482686002 
2495	-6.58409101810821 
2496	 4.14098084517794 
2497	 14.1915569103316 
2498	 18.7882625408673 
2499	 22.3194722469351 
2500	 22.8071167014809 
