Wavelength	reference_blackPA00000.asd
350	 18.7309485079989 
351	 19.2159515510637 
352	 20.0056109682323 
353	 22.3274168261009 
354	 23.4002037222652 
355	 23.841534502006 
356	 24.8890982769913 
357	 28.2252300338594 
358	 29.3150594875059 
359	 28.1291180612458 
360	 28.4265491420431 
361	 30.0165182361599 
362	 31.7834834026072 
363	 32.7107441206547 
364	 33.6775652735711 
365	 34.2064154675107 
366	 34.591876377452 
367	 36.2295691458182 
368	 35.9401195875897 
369	 35.504901442674 
370	 37.6834953168689 
371	 39.8907228015902 
372	 40.7861825609124 
373	 40.7646448142491 
374	 43.7310752871397 
375	 44.5090293083562 
376	 43.7556412529906 
377	 44.8579753893786 
378	 46.9523281265705 
379	 48.9266281356757 
380	 50.1112122471208 
381	 51.2371837490276 
382	 52.4775680119705 
383	 54.5133523016078 
384	 58.4124684027098 
385	 61.0099921648957 
386	 63.2144843555242 
387	 66.4871429373149 
388	 69.3919250898297 
389	 72.4638945194053 
390	 76.154007929612 
391	 80.6871810162508 
392	 86.1401409369892 
393	 91.2749233331557 
394	 94.8186341240245 
395	 100.833879671526 
396	 107.901981457652 
397	 114.843727288476 
398	 123.096993702157 
399	 130.77179323508 
400	 139.349601088079 
401	 152.76036764111 
402	 164.496877192174 
403	 175.971990431246 
404	 189.805270970645 
405	 204.787550070805 
406	 220.366460110974 
407	 236.710687688785 
408	 254.986581117493 
409	 275.652247503017 
410	 297.759992456198 
411	 319.921266508891 
412	 344.18893297539 
413	 369.079648006939 
414	 393.497054723197 
415	 418.482449874531 
416	 445.441676100342 
417	 473.543023653629 
418	 499.920945156685 
419	 527.912484543762 
420	 556.382212503947 
421	 583.542493128296 
422	 611.330375841841 
423	 638.59957531066 
424	 664.355179410189 
425	 687.804447458906 
426	 712.138327565924 
427	 737.230196039784 
428	 761.12534768507 
429	 783.757107180938 
430	 806.716709713141 
431	 830.35336649863 
432	 848.93434429736 
433	 867.994611421729 
434	 888.376947458407 
435	 904.617575441305 
436	 920.973891345897 
437	 938.489191157822 
438	 956.75809592051 
439	 973.019646636817 
440	 988.610026852435 
441	 1004.56947346581 
442	 1019.65943291277 
443	 1034.0221172173 
444	 1048.44856467739 
445	 1064.39174898375 
446	 1079.52413672173 
447	 1093.83241228181 
448	 1107.8035860102 
449	 1120.21953355038 
450	 1133.44541697194 
451	 1148.0845658754 
452	 1160.24880296377 
453	 1173.3019935396 
454	 1187.3847526535 
455	 1200.63213000243 
456	 1214.55733730623 
457	 1228.41874329004 
458	 1241.76163999108 
459	 1258.12301779127 
460	 1274.79799647094 
461	 1290.46799177326 
462	 1306.491850154 
463	 1324.48665513552 
464	 1343.11393566168 
465	 1359.55072999178 
466	 1378.40544137881 
467	 1398.81177580268 
468	 1419.26282922918 
469	 1440.31347802847 
470	 1462.63352662216 
471	 1486.17569712771 
472	 1509.60210874633 
473	 1535.68087829739 
474	 1563.71809899761 
475	 1591.35035727534 
476	 1617.90590414204 
477	 1645.68794228218 
478	 1676.34858726823 
479	 1707.29058945618 
480	 1738.38773743568 
481	 1770.32554335165 
482	 1805.08299954274 
483	 1839.21958889604 
484	 1873.50394428868 
485	 1910.41289567603 
486	 1949.04307836309 
487	 1989.33251714338 
488	 2031.03943441957 
489	 2073.21520699671 
490	 2114.74950559107 
491	 2156.86447325575 
492	 2204.07759728876 
493	 2252.06995891125 
494	 2300.71344186793 
495	 2351.28405326121 
496	 2401.84479612135 
497	 2451.86473265317 
498	 2502.06059864056 
499	 2556.25417740907 
500	 2613.3885369659 
501	 2671.667711943 
502	 2728.17575471691 
503	 2784.70564534612 
504	 2842.20589780817 
505	 2901.24543461206 
506	 2960.15872313965 
507	 3020.14623171444 
508	 3082.48267492769 
509	 3147.49772184043 
510	 3212.59043501052 
511	 3276.84742893072 
512	 3341.32013132214 
513	 3408.32553469563 
514	 3478.30355063186 
515	 3550.62612959007 
516	 3624.33172273404 
517	 3697.51367735206 
518	 3769.06222625495 
519	 3840.55922722173 
520	 3913.8831569156 
521	 3989.42278849902 
522	 4065.46591490494 
523	 4143.47687431655 
524	 4221.85427401376 
525	 4297.86379432182 
526	 4374.95107493077 
527	 4453.9384827212 
528	 4534.24028331538 
529	 4611.66333047402 
530	 4690.39452015257 
531	 4771.13066137865 
532	 4848.58396161257 
533	 4925.56164368792 
534	 5002.73584847477 
535	 5079.86960507323 
536	 5155.71961301791 
537	 5230.67317972614 
538	 5305.07834965595 
539	 5376.92518057181 
540	 5450.257882365 
541	 5525.68932306364 
542	 5597.15070758213 
543	 5667.74201935497 
544	 5737.21183619086 
545	 5803.72625425406 
546	 5872.41401328007 
547	 5941.13968548245 
548	 6006.75596432702 
549	 6070.68321147265 
550	 6135.88564338115 
551	 6202.34447242975 
552	 6263.39168578278 
553	 6324.00993242579 
554	 6384.36385767721 
555	 6441.32098378648 
556	 6497.17599113971 
557	 6551.99357417512 
558	 6604.79504316541 
559	 6651.83642057323 
560	 6697.16307425088 
561	 6742.62518438229 
562	 6783.69762016472 
563	 6816.99919333754 
564	 6842.72993047687 
565	 6864.67688272768 
566	 6881.62348844799 
567	 6893.05281060049 
568	 6898.42805215202 
569	 6896.56842638893 
570	 6887.50953165694 
571	 6873.34272707502 
572	 6862.01309599697 
573	 6847.24991748805 
574	 6826.64850731738 
575	 6802.23072654949 
576	 6771.43248110808 
577	 6735.23629545516 
578	 6695.82522444687 
579	 6649.36419308278 
580	 6601.48145667196 
581	 6556.62501369391 
582	 6507.59493319995 
583	 6469.11709046503 
584	 6441.77721436938 
585	 6403.77858373527 
586	 6364.88587340018 
587	 6325.70058954968 
588	 6283.80498447724 
589	 6248.9130638545 
590	 6220.09507660072 
591	 6195.48952438612 
592	 6181.30230952483 
593	 6173.01960637219 
594	 6166.36765149419 
595	 6156.31736689901 
596	 6157.45437064881 
597	 6174.44251442877 
598	 6205.24220334443 
599	 6235.338088221 
600	 6264.72798719829 
601	 6297.4318266464 
602	 6333.47445676936 
603	 6370.14104991466 
604	 6405.92568447068 
605	 6442.0584623439 
606	 6480.7882881412 
607	 6527.91386713704 
608	 6593.14459324419 
609	 6666.05451558724 
610	 6747.83140308303 
611	 6841.32767648815 
612	 6932.31720837387 
613	 7019.39506604758 
614	 7102.02252608275 
615	 7175.3682248773 
616	 7246.05392901056 
617	 7317.2618247069 
618	 7388.19295822298 
619	 7460.95790956203 
620	 7535.36591287906 
621	 7610.1991781297 
622	 7685.60109483433 
623	 7763.06264308138 
624	 7843.22855188612 
625	 7923.19125409478 
626	 8000.99245791761 
627	 8076.14720650569 
628	 8150.64624517476 
629	 8221.70181050708 
630	 8287.88780607152 
631	 8348.60368907371 
632	 8408.15699708075 
633	 8464.36217668507 
634	 8515.01852098895 
635	 8565.36995062327 
636	 8616.0532634574 
637	 8665.79093276357 
638	 8709.4608044098 
639	 8753.00434782356 
640	 8798.01097459873 
641	 8843.2487163348 
642	 8895.61505035154 
643	 8949.46153763828 
644	 8997.62161649792 
645	 9049.74903319772 
646	 9103.15974850956 
647	 9156.37887940247 
648	 9214.51251655909 
649	 9271.51240816197 
650	 9327.51854015536 
651	 9388.70433763359 
652	 9451.34980014663 
653	 9515.67818502292 
654	 9582.87388351366 
655	 9651.4660401501 
656	 9719.62493160376 
657	 9786.963939108 
658	 9857.28025897751 
659	 9930.41999515703 
660	 10005.8654337866 
661	 10082.6727803219 
662	 10160.2000315622 
663	 10237.9580739027 
664	 10315.6563572276 
665	 10393.8343775355 
666	 10472.1648979098 
667	 10551.3302541706 
668	 10636.4190577592 
669	 10724.9212829699 
670	 10814.579891335 
671	 10903.1490342795 
672	 10996.073499964 
673	 11091.7405543172 
674	 11185.004565731 
675	 11284.2632205461 
676	 11384.7564428682 
677	 11482.0362904447 
678	 11588.1117877334 
679	 11695.036688228 
680	 11798.8567260239 
681	 11905.2169384772 
682	 12011.1806978345 
683	 12117.1279711036 
684	 12225.5027150331 
685	 12336.0358224744 
686	 12448.390376171 
687	 12561.8100801224 
688	 12673.8051890718 
689	 12786.9661755829 
690	 12902.2564443555 
691	 13016.1045891612 
692	 13129.4724734668 
693	 13242.5133513107 
694	 13354.8897448576 
695	 13460.6798056771 
696	 13565.0460520823 
697	 13674.500762154 
698	 13776.9199039004 
699	 13877.3888231544 
700	 13978.664246932 
701	 14072.1794753245 
702	 14164.869594268 
703	 14256.5125525212 
704	 14339.6491575697 
705	 14426.8666282427 
706	 14511.8843665093 
707	 14584.0637236783 
708	 14657.9444561579 
709	 14731.2595973622 
710	 14800.6614857395 
711	 14866.3980259584 
712	 14927.3719877322 
713	 14984.651011762 
714	 15041.8497674958 
715	 15099.2462128456 
716	 15153.3650957369 
717	 15200.4864297192 
718	 15253.5136239048 
719	 15306.0459714484 
720	 15352.303832737 
721	 15398.2353225616 
722	 15439.7920913099 
723	 15478.2023796463 
724	 15521.7285537807 
725	 15564.1122411069 
726	 15606.4918718224 
727	 15652.0300760282 
728	 15692.4751988786 
729	 15732.3895731696 
730	 15775.1674461094 
731	 15812.0503854989 
732	 15853.7470329617 
733	 15901.2646672551 
734	 15942.6799975693 
735	 15980.3007897057 
736	 16015.1082407096 
737	 16047.8824218789 
738	 16075.7558225087 
739	 16101.111219331 
740	 16125.7635477553 
741	 16145.702360228 
742	 16168.3467950815 
743	 16193.2547915405 
744	 16208.6749440915 
745	 16226.5599541185 
746	 16243.3767858261 
747	 16250.6745013323 
748	 16264.7396236385 
749	 16278.5031817151 
750	 16284.8988293725 
751	 16290.5522452885 
752	 16291.5036689596 
753	 16288.7807348653 
754	 16290.4308028384 
755	 16289.4268344988 
756	 16284.0008654514 
757	 16273.8549196192 
758	 16254.570531719 
759	 16221.5311532459 
760	 16180.3695949214 
761	 16169.3714430282 
762	 16162.6653780229 
763	 16149.7497706106 
764	 16137.8973480132 
765	 16125.1610151792 
766	 16109.9795792364 
767	 16090.2356140564 
768	 16059.3800212589 
769	 16026.6902538419 
770	 15998.5808908513 
771	 15967.2405713259 
772	 15935.2167317888 
773	 15902.5555596923 
774	 15866.7682349936 
775	 15830.4586165412 
776	 15794.1202312955 
777	 15757.2059078897 
778	 15717.6357313535 
779	 15672.9063026368 
780	 15623.1153488378 
781	 15574.3576426853 
782	 15525.8496983969 
783	 15475.9856055975 
784	 15422.1755664177 
785	 15368.663932616 
786	 15313.5310884741 
787	 15254.7919638558 
788	 15201.1988329192 
789	 15144.6691732564 
790	 15083.0391630588 
791	 15029.8021870569 
792	 14971.0396355864 
793	 14905.2125427219 
794	 14838.1853678238 
795	 14768.4493351776 
796	 14699.2944264671 
797	 14633.5954725794 
798	 14568.8268831616 
799	 14502.937979717 
800	 14434.9148832351 
801	 14364.8298067897 
802	 14296.2448563674 
803	 14230.0057787318 
804	 14165.2642385681 
805	 14098.6140897671 
806	 14029.9149708686 
807	 13959.0935138578 
808	 13883.5507175336 
809	 13808.9216332817 
810	 13736.2810970284 
811	 13661.6512578187 
812	 13592.1980385024 
813	 13522.3488438799 
814	 13444.8014170562 
815	 13372.7571534523 
816	 13300.3694007283 
817	 13224.3811022567 
818	 13151.6261779112 
819	 13077.5978091987 
820	 13001.4957451689 
821	 12924.6155768892 
822	 12841.0243682984 
823	 12757.8528110033 
824	 12681.7045316303 
825	 12603.2109241297 
826	 12528.5959020497 
827	 12459.1697897873 
828	 12389.1378953525 
829	 12312.1161187207 
830	 12228.4964669026 
831	 12141.3814667448 
832	 12044.6906780085 
833	 11947.741326983 
834	 11857.6571320294 
835	 11770.3578391565 
836	 11691.7724016421 
837	 11623.4003637671 
838	 11563.1328281364 
839	 11508.9639064904 
840	 11458.5614476413 
841	 11408.6230872231 
842	 11352.8327380898 
843	 11286.6745457403 
844	 11212.0728614808 
845	 11140.3462153429 
846	 11068.6055088062 
847	 10996.4357850992 
848	 10923.8498833047 
849	 10850.1689056636 
850	 10776.0568450173 
851	 10702.5421164391 
852	 10631.3747329952 
853	 10559.7409264953 
854	 10488.3885343664 
855	 10420.5418793091 
856	 10351.4227075403 
857	 10282.2456504193 
858	 10214.0911005066 
859	 10141.2679747803 
860	 10069.8092651359 
861	 10000.8353491924 
862	 9928.69288751882 
863	 9859.65905249855 
864	 9792.86721205374 
865	 9725.28517796413 
866	 9657.41786426157 
867	 9589.35474301795 
868	 9521.15968105771 
869	 9452.72256914974 
870	 9384.90332188486 
871	 9318.57613659095 
872	 9254.30774189819 
873	 9189.16421330307 
874	 9122.01250275429 
875	 9052.93361020303 
876	 8984.58040149706 
877	 8912.97701634645 
878	 8840.95456244794 
879	 8776.59965219316 
880	 8710.86802585005 
881	 8645.73123368578 
882	 8583.52459358607 
883	 8517.10706577641 
884	 8454.21559200595 
885	 8394.65827858184 
886	 8328.52200001218 
887	 8263.54347069158 
888	 8199.3528350714 
889	 8133.88055067245 
890	 8069.5450287143 
891	 8004.86947693593 
892	 7939.87224479858 
893	 7877.58810411798 
894	 7812.86638171222 
895	 7746.56026540838 
896	 7681.66101591623 
897	 7617.75991493317 
898	 7552.81946035564 
899	 7487.00452251685 
900	 7425.48047097033 
901	 7364.50982261672 
902	 7302.51000076455 
903	 7239.18360717327 
904	 7178.21162353234 
905	 7117.62392941102 
906	 7056.23520155457 
907	 6997.02639255526 
908	 6935.44939316284 
909	 6871.37222075839 
910	 6807.32093938558 
911	 6743.7257605857 
912	 6681.5316502178 
913	 6620.97342875481 
914	 6560.49784899388 
915	 6500.6331920014 
916	 6440.89756740167 
917	 6380.29409653096 
918	 6320.9350738905 
919	 6261.03794068236 
920	 6199.34657321695 
921	 6138.05666004863 
922	 6077.38976005077 
923	 6017.32590942228 
924	 5957.61709762368 
925	 5897.87044646861 
926	 5840.86923418914 
927	 5787.06560768146 
928	 5728.56716126356 
929	 5667.0038984621 
930	 5603.65931177924 
931	 5539.77288980285 
932	 5477.57922416833 
933	 5415.88082165758 
934	 5353.94631179203 
935	 5294.65196054279 
936	 5236.84254508267 
937	 5180.42386334799 
938	 5125.69660022983 
939	 5067.31262734193 
940	 5007.93149080483 
941	 4950.39360793124 
942	 4893.59189171387 
943	 4838.54000140168 
944	 4783.76350427337 
945	 4726.57771827852 
946	 4671.08621431798 
947	 4617.02195630411 
948	 4563.32373619014 
949	 4508.67101397408 
950	 4455.05221342745 
951	 4402.34830037154 
952	 4349.57677548212 
953	 4299.54458309449 
954	 4249.80163554605 
955	 4198.83119958278 
956	 4148.65026693341 
957	 4096.85848871841 
958	 4043.40321896227 
959	 3989.62773699064 
960	 3938.82471072823 
961	 3887.69549108336 
962	 3835.12476780101 
963	 3784.62205724939 
964	 3733.92176680096 
965	 3682.88762661263 
966	 6165.13994063782 
967	 6231.97340465766 
968	 6306.74464072991 
969	 6387.77574829628 
970	 6476.05182180612 
971	 6571.68808737652 
972	 6678.4464659832 
973	 6781.08290516995 
974	 6891.56326830856 
975	 6998.83519179925 
976	 7104.64245233609 
977	 7209.10123507014 
978	 7315.77202462858 
979	 7417.43332833682 
980	 7513.24284980308 
981	 7607.46609346613 
982	 7696.08321271013 
983	 7782.14898136177 
984	 7862.60856281267 
985	 7939.08293841065 
986	 8012.33661339533 
987	 8079.32020609997 
988	 8147.32497846623 
989	 8214.50166774175 
990	 8278.25093600599 
991	 8337.35684557649 
992	 8400.16279507048 
993	 8462.85078186105 
994	 8523.53963922586 
995	 8587.51583556986 
996	 8646.89699080944 
997	 8704.44217373738 
998	 8765.14632472909 
999	 8826.98581665868 
1000	 8893.93287901217 
1001	 8959.45909426128 
1002	 9021.88733208066 
1003	 9084.11883210289 
1004	 9142.32297019278 
1005	 9201.60916016256 
1006	 9262.09788164606 
1007	 9319.90243672698 
1008	 9374.76219668226 
1009	 9433.37169935843 
1010	 9491.05226368431 
1011	 9547.10405321178 
1012	 9604.11123923131 
1013	 9658.40282324925 
1014	 9710.55636699955 
1015	 9762.50240704547 
1016	 9816.85492293089 
1017	 9870.45605592467 
1018	 9922.87918269846 
1019	 9977.60179506104 
1020	 10027.8023377529 
1021	 10074.74827842 
1022	 10124.9915807989 
1023	 10176.1066447853 
1024	 10225.9268390146 
1025	 10277.7126160812 
1026	 10336.4327956504 
1027	 10395.1556288726 
1028	 10450.9508834831 
1029	 10507.6908615108 
1030	 10561.7824376426 
1031	 10613.2569943735 
1032	 10665.2577006007 
1033	 10716.0700161678 
1034	 10768.9951340343 
1035	 10824.8013039734 
1036	 10881.5602837741 
1037	 10939.5423729188 
1038	 10993.3854145151 
1039	 11046.0392536543 
1040	 11099.1791182932 
1041	 11149.2570303548 
1042	 11202.228048894 
1043	 11258.573739439 
1044	 11312.2652655634 
1045	 11363.191526612 
1046	 11415.9149037383 
1047	 11461.7790801835 
1048	 11506.862615776 
1049	 11551.4397850727 
1050	 11592.6760194961 
1051	 11637.7133871426 
1052	 11680.8425447683 
1053	 11721.0863286613 
1054	 11761.4351371018 
1055	 11799.0655270654 
1056	 11835.8723391184 
1057	 11874.3184364913 
1058	 11914.1796065157 
1059	 11953.5376138443 
1060	 11994.6152960891 
1061	 12032.9397959494 
1062	 12069.60747457 
1063	 12105.9811611527 
1064	 12143.3177407061 
1065	 12182.2169942977 
1066	 12222.8059574525 
1067	 12264.5147519446 
1068	 12307.2418521278 
1069	 12352.0973938393 
1070	 12398.9643676798 
1071	 12443.8815138021 
1072	 12486.7849079127 
1073	 12530.3556360334 
1074	 12578.2520377704 
1075	 12628.6037659895 
1076	 12680.4658099561 
1077	 12737.53295706 
1078	 12792.0598090635 
1079	 12843.7494583482 
1080	 12898.3979383566 
1081	 12953.4402929403 
1082	 13012.1455326873 
1083	 13072.5550131734 
1084	 13137.675234945 
1085	 13204.4151538915 
1086	 13269.4588487258 
1087	 13334.9608659752 
1088	 13403.328077253 
1089	 13474.3487099755 
1090	 13551.0208252843 
1091	 13630.1206468092 
1092	 13711.5218112851 
1093	 13799.7498524005 
1094	 13892.9626621382 
1095	 13988.0916232349 
1096	 14088.4907316531 
1097	 14191.7839717595 
1098	 14296.2300882055 
1099	 14406.6961565574 
1100	 14520.8714344871 
1101	 14641.7919015424 
1102	 14768.728431988 
1103	 14898.9272487319 
1104	 15035.463970812 
1105	 15175.3698884954 
1106	 15316.3482305637 
1107	 15464.2930361595 
1108	 15615.7933591493 
1109	 15771.6605334686 
1110	 15929.9112083964 
1111	 16092.2518796138 
1112	 16255.7658463317 
1113	 16419.3057711514 
1114	 16590.908499565 
1115	 16766.8078318538 
1116	 16947.0312847251 
1117	 17134.3044255407 
1118	 17323.3675799137 
1119	 17514.0504168404 
1120	 17710.2998568828 
1121	 17911.740542977 
1122	 18116.1514906345 
1123	 18326.7062257774 
1124	 18537.5627298221 
1125	 18751.1725977692 
1126	 18966.5201746466 
1127	 19180.8559564907 
1128	 19395.3205510929 
1129	 19611.8893268805 
1130	 19829.9586556415 
1131	 20046.4361678585 
1132	 20265.2993393511 
1133	 20480.4419396618 
1134	 20693.272264768 
1135	 20905.0094928044 
1136	 21116.4446498646 
1137	 21324.6604382469 
1138	 21532.310989717 
1139	 21734.5194287934 
1140	 21931.4962535728 
1141	 22128.4590973331 
1142	 22320.5289101621 
1143	 22513.7698777918 
1144	 22710.230923144 
1145	 22901.0266137294 
1146	 23091.1842946595 
1147	 23275.5450491373 
1148	 23455.1880094923 
1149	 23628.5941417555 
1150	 23802.4460419025 
1151	 23972.5937094718 
1152	 24141.6183102149 
1153	 24310.402071695 
1154	 24474.4458995612 
1155	 24637.0720608038 
1156	 24792.4223777861 
1157	 24944.2224139124 
1158	 25089.2147593137 
1159	 25225.7640579529 
1160	 25361.1453688262 
1161	 25493.8237274114 
1162	 25620.282310239 
1163	 25744.1738972838 
1164	 25860.6179192097 
1165	 25968.7030681369 
1166	 26073.7210866257 
1167	 26173.7195238462 
1168	 26269.1082559525 
1169	 26361.5009306254 
1170	 26448.0606609726 
1171	 26531.1303093091 
1172	 26609.8620174876 
1173	 26684.0664123816 
1174	 26753.7558674261 
1175	 26820.2226837591 
1176	 26880.6735422287 
1177	 26942.2572679464 
1178	 27002.4515799689 
1179	 27058.7570496936 
1180	 27113.3116255803 
1181	 27165.4106466506 
1182	 27211.6120925152 
1183	 27260.3145416712 
1184	 27310.6053774834 
1185	 27356.8113259178 
1186	 27402.6709869047 
1187	 27445.1256506053 
1188	 27481.9564522303 
1189	 27520.3829299425 
1190	 27557.4560139872 
1191	 27594.3355912068 
1192	 27634.6071875396 
1193	 27668.3800997942 
1194	 27702.8448895043 
1195	 27736.0527663178 
1196	 27766.4416417628 
1197	 27795.7187900142 
1198	 27821.6398563226 
1199	 27843.6168610481 
1200	 27866.2919933303 
1201	 27887.465569655 
1202	 27904.7260720447 
1203	 27922.2524934749 
1204	 27935.0418911485 
1205	 27942.4452768662 
1206	 27949.1052956469 
1207	 27952.9036447231 
1208	 27955.5419142284 
1209	 27954.0855214736 
1210	 27955.0725406446 
1211	 27957.1541854115 
1212	 27957.398534356 
1213	 27958.8017927409 
1214	 27957.6500498055 
1215	 27953.9338793169 
1216	 27951.9137314091 
1217	 27950.940552955 
1218	 27952.4199385165 
1219	 27954.1961528061 
1220	 27952.09800245 
1221	 27949.9709089471 
1222	 27945.257624051 
1223	 27941.8979313953 
1224	 27938.4825495425 
1225	 27935.8793652401 
1226	 27933.9548385964 
1227	 27930.7561806063 
1228	 27926.8258822157 
1229	 27924.193123661 
1230	 27919.9965791642 
1231	 27919.2768282682 
1232	 27921.9050189618 
1233	 27923.6154409088 
1234	 27927.1340376187 
1235	 27929.1056352065 
1236	 27930.1115372567 
1237	 27929.8751986449 
1238	 27933.5087936401 
1239	 27941.5855694732 
1240	 27949.6736576818 
1241	 27961.6208005998 
1242	 27973.5113299805 
1243	 27982.9754666896 
1244	 27995.4679360636 
1245	 28011.1326169574 
1246	 28029.0325747531 
1247	 28047.8546897393 
1248	 28068.0488745215 
1249	 28090.5570343323 
1250	 28113.9615129344 
1251	 28138.5723368489 
1252	 28164.2572211164 
1253	 28191.3921087574 
1254	 28218.7490692394 
1255	 28247.0291638309 
1256	 28275.6958400106 
1257	 28304.5733952731 
1258	 28335.2965999955 
1259	 28370.4192807927 
1260	 28400.9748332097 
1261	 28430.4399130045 
1262	 28458.4581431327 
1263	 28486.512889384 
1264	 28509.9630130753 
1265	 28533.8291970749 
1266	 28556.7241175135 
1267	 28572.9464423604 
1268	 28582.8421977757 
1269	 28591.1742822599 
1270	 28596.8411570882 
1271	 28598.9046953945 
1272	 28595.783418738 
1273	 28582.9091594253 
1274	 28562.9629524448 
1275	 28533.5819972038 
1276	 28499.2788565938 
1277	 28462.9833968997 
1278	 28422.8054578354 
1279	 28379.997764724 
1280	 28334.0809195309 
1281	 28285.6130102098 
1282	 28234.2863990979 
1283	 28179.8935869311 
1284	 28121.9840764921 
1285	 28064.0156718028 
1286	 28001.0907650891 
1287	 27941.6411298253 
1288	 27882.2302570658 
1289	 27826.177367487 
1290	 27769.3366518782 
1291	 27715.3144165826 
1292	 27668.0377811415 
1293	 27621.0413297156 
1294	 27579.4246211867 
1295	 27544.661297563 
1296	 27510.4910233437 
1297	 27480.5466844312 
1298	 27458.2776737549 
1299	 27442.7650699865 
1300	 27435.6115878623 
1301	 27435.3042994451 
1302	 27438.8889079879 
1303	 27444.9053533232 
1304	 27453.9355986691 
1305	 27465.1223612414 
1306	 27479.0176706598 
1307	 27495.8624561508 
1308	 27512.8884607211 
1309	 27533.6465543769 
1310	 27558.4715711907 
1311	 27584.6848151884 
1312	 27612.3438871698 
1313	 27643.2184211114 
1314	 27673.6541828823 
1315	 27704.5286360476 
1316	 27736.2006712346 
1317	 27764.9388769236 
1318	 27801.753287824 
1319	 27840.6174729241 
1320	 27887.2544056667 
1321	 27940.2848755134 
1322	 27999.6929945301 
1323	 28061.2721954114 
1324	 28122.6493209937 
1325	 28189.3833746988 
1326	 28260.5508914731 
1327	 28337.3847090625 
1328	 28420.8228346945 
1329	 28510.015004541 
1330	 28605.8753372 
1331	 28706.0743447416 
1332	 28809.8144122401 
1333	 28917.9818407257 
1334	 29029.7976038253 
1335	 29146.2630264035 
1336	 29267.2768436046 
1337	 29391.2701808823 
1338	 29519.4344405038 
1339	 29649.0378977157 
1340	 29775.6556447236 
1341	 29903.1828949507 
1342	 30032.4938999883 
1343	 30161.2231837143 
1344	 30286.8109602563 
1345	 30404.5411420747 
1346	 30516.7455607131 
1347	 30619.5961556936 
1348	 30710.0126719592 
1349	 30796.8962018296 
1350	 30879.5811280418 
1351	 30950.8650647437 
1352	 31012.551939061 
1353	 31074.7568337711 
1354	 31129.1472201579 
1355	 31181.4057176229 
1356	 31237.6584116254 
1357	 31292.1749252439 
1358	 31354.2989507341 
1359	 31429.4722847954 
1360	 31515.3178186103 
1361	 31612.8849620581 
1362	 31729.2955204715 
1363	 31860.8654350309 
1364	 32010.9755995435 
1365	 32174.047517264 
1366	 32347.2685137068 
1367	 32529.5668805817 
1368	 32713.5338096253 
1369	 32894.1593904379 
1370	 33072.0958864754 
1371	 33228.1415805844 
1372	 33356.4226605486 
1373	 33463.7621564352 
1374	 33529.5197417424 
1375	 33560.547646957 
1376	 33563.5373587934 
1377	 33541.187862871 
1378	 33497.8372326276 
1379	 33445.9088102628 
1380	 33383.8895700922 
1381	 33318.0098356187 
1382	 33260.3364163042 
1383	 33204.9333739879 
1384	 33162.667763871 
1385	 33131.4783267545 
1386	 33112.448421289 
1387	 33104.9694501196 
1388	 33107.1549726602 
1389	 33120.1153931605 
1390	 33143.3976710533 
1391	 33172.1571568277 
1392	 33221.9554441907 
1393	 33285.3826483544 
1394	 33365.4504028078 
1395	 33464.9005196801 
1396	 33574.9553714064 
1397	 33691.5228303897 
1398	 33811.3046005861 
1399	 33935.7063288589 
1400	 34059.8365818796 
1401	 34180.4862266301 
1402	 34299.1351594587 
1403	 34403.8273318225 
1404	 34495.4731970999 
1405	 34575.7703792684 
1406	 34648.6625501916 
1407	 34713.0835222126 
1408	 34769.5077831039 
1409	 34824.1570972531 
1410	 34869.3131849393 
1411	 34909.9585019122 
1412	 34948.991619692 
1413	 34979.302399912 
1414	 35009.8032932392 
1415	 35035.8215825406 
1416	 35053.8688852635 
1417	 35071.2953502641 
1418	 35078.8384134557 
1419	 35081.6087123982 
1420	 35083.7086791827 
1421	 35078.464369455 
1422	 35070.1081790144 
1423	 35056.8465438569 
1424	 35036.5726943061 
1425	 35011.3889475566 
1426	 34981.7113595251 
1427	 34945.4081409725 
1428	 34906.651367321 
1429	 34865.9945946001 
1430	 34821.6772609055 
1431	 34778.3041635209 
1432	 34731.3688936533 
1433	 34682.512867982 
1434	 34634.1169062829 
1435	 34583.2683797786 
1436	 34534.0780325624 
1437	 34484.946286006 
1438	 34435.7121185589 
1439	 34391.9465141445 
1440	 34350.2388864445 
1441	 34310.8029667066 
1442	 34275.0945163821 
1443	 34235.6067576974 
1444	 34193.756449358 
1445	 34154.0104646856 
1446	 34112.9428640412 
1447	 34073.2321591997 
1448	 34038.0516007511 
1449	 33999.3846581501 
1450	 33959.0079944916 
1451	 33918.6579860151 
1452	 33877.1095507808 
1453	 33834.933694522 
1454	 33794.7968028257 
1455	 33753.9488464615 
1456	 33709.3390102251 
1457	 33661.5461724267 
1458	 33611.9946595101 
1459	 33558.1455861571 
1460	 33502.2629035591 
1461	 33445.8884191061 
1462	 33384.2208629195 
1463	 33323.2404763687 
1464	 33264.3818575672 
1465	 33198.4167102641 
1466	 33132.2977580049 
1467	 33068.3689829475 
1468	 33000.7979663673 
1469	 32939.8272857571 
1470	 32882.6431529405 
1471	 32822.3892815962 
1472	 32766.9677313041 
1473	 32715.3240202737 
1474	 32666.2814905229 
1475	 32621.1130882515 
1476	 32575.9836402033 
1477	 32533.7273769672 
1478	 32490.2423888593 
1479	 32443.4771721057 
1480	 32397.7502010723 
1481	 32350.6538339121 
1482	 32308.0767679164 
1483	 32268.3929798069 
1484	 32229.1572438918 
1485	 32189.1624113858 
1486	 32144.0012525163 
1487	 32099.4602457853 
1488	 32056.7243294241 
1489	 32015.6559703445 
1490	 31978.3895265544 
1491	 31940.4707890178 
1492	 31900.562436073 
1493	 31859.8250030941 
1494	 31817.6925560863 
1495	 31777.7468944958 
1496	 31737.8208821974 
1497	 31697.4482241861 
1498	 31659.9871786192 
1499	 31619.5966113519 
1500	 31575.9670286576 
1501	 31534.8122227954 
1502	 31494.9057725878 
1503	 31455.2212086791 
1504	 31416.6594023663 
1505	 31379.4135599952 
1506	 31340.8875716584 
1507	 31300.6349620506 
1508	 31263.0967895234 
1509	 31223.7678947852 
1510	 31182.3341722647 
1511	 31143.3171324122 
1512	 31101.9903819371 
1513	 31060.79262186 
1514	 31022.2134870163 
1515	 30984.3884934928 
1516	 30949.2539806141 
1517	 30911.7418292845 
1518	 30869.6355708482 
1519	 30823.4130717653 
1520	 30776.1682485512 
1521	 30733.087700604 
1522	 30690.9994997645 
1523	 30650.8140821933 
1524	 30608.0999980491 
1525	 30560.8939269934 
1526	 30513.125868056 
1527	 30465.2272596259 
1528	 30420.933107183 
1529	 30379.5888339321 
1530	 30338.6495967502 
1531	 30296.8664552959 
1532	 30253.1157895664 
1533	 30205.1664891439 
1534	 30156.4615875788 
1535	 30108.7651999354 
1536	 30061.2128982699 
1537	 30014.3074294785 
1538	 29964.2618665067 
1539	 29913.6048148026 
1540	 29862.1355845917 
1541	 29808.9021676006 
1542	 29758.6640422856 
1543	 29709.8066053757 
1544	 29661.6164467209 
1545	 29613.3077527073 
1546	 29562.7580719535 
1547	 29511.0410439463 
1548	 29456.2419677577 
1549	 29398.2943604579 
1550	 29341.1639578471 
1551	 29287.3315875769 
1552	 29235.4681396169 
1553	 29181.5285913073 
1554	 29125.1169997897 
1555	 29070.0167090765 
1556	 29011.6623101818 
1557	 28952.213171734 
1558	 28896.9571996498 
1559	 28839.7279950104 
1560	 28782.4424563215 
1561	 28725.7017102328 
1562	 28668.159915955 
1563	 28607.5924114251 
1564	 28543.9196385085 
1565	 28481.8350397591 
1566	 28418.6081236368 
1567	 28353.987340414 
1568	 28292.1648965341 
1569	 28229.3180600613 
1570	 28162.1952338001 
1571	 28097.2844212474 
1572	 28031.6531797224 
1573	 27964.2926087521 
1574	 27900.5185765038 
1575	 27836.1117998229 
1576	 27770.5834168524 
1577	 27706.0735231452 
1578	 27642.0119021693 
1579	 27576.0717790651 
1580	 27509.0181679563 
1581	 27442.4532644081 
1582	 27372.6495827545 
1583	 27301.8683493098 
1584	 27231.5284384928 
1585	 27159.7560455245 
1586	 27088.252707086 
1587	 27019.5168671151 
1588	 26953.0733387664 
1589	 26883.8694806969 
1590	 26811.339761052 
1591	 26739.3210873437 
1592	 26665.0733236119 
1593	 26587.2842050033 
1594	 26514.1447648813 
1595	 26442.1221135977 
1596	 26368.9058348544 
1597	 26299.5602740656 
1598	 26228.341259864 
1599	 26155.0920998593 
1600	 26081.2109519346 
1601	 26005.6980312168 
1602	 25930.4148313756 
1603	 25855.0613811242 
1604	 25780.085743997 
1605	 25705.2393731521 
1606	 25630.171010437 
1607	 25553.3903467712 
1608	 25477.8239294535 
1609	 25401.9544453075 
1610	 25322.2034708755 
1611	 25242.5275458359 
1612	 25159.988366493 
1613	 25075.476155412 
1614	 24992.4936570432 
1615	 24909.3931709704 
1616	 24826.6447098685 
1617	 24741.5271922534 
1618	 24653.799345566 
1619	 24568.094079334 
1620	 24479.7964429131 
1621	 24389.6245224596 
1622	 24299.9595806134 
1623	 24206.2976438325 
1624	 24111.8754751238 
1625	 24017.7001640656 
1626	 23925.7286763159 
1627	 23833.6698715465 
1628	 23740.3659698674 
1629	 23647.8118846636 
1630	 23551.5970901342 
1631	 23457.3363252607 
1632	 23363.3499081138 
1633	 23271.2712614168 
1634	 23184.6844689272 
1635	 23098.961728895 
1636	 23018.6772511122 
1637	 22936.1842217152 
1638	 22854.1481398923 
1639	 22771.0456837625 
1640	 22687.122187181 
1641	 22602.4492222347 
1642	 22516.8993671036 
1643	 22431.1326186354 
1644	 22345.47731721 
1645	 22257.4354770009 
1646	 22169.4079511322 
1647	 22077.8113595097 
1648	 21983.9036994188 
1649	 21887.4996205576 
1650	 21787.1851874306 
1651	 21686.9232889343 
1652	 21586.5559363851 
1653	 21481.5879373876 
1654	 21377.6913510106 
1655	 21264.6580601824 
1656	 21147.7425560857 
1657	 21019.2448802429 
1658	 20882.3705937399 
1659	 20738.0649038831 
1660	 20582.9072116431 
1661	 20423.7071349593 
1662	 20258.9979585953 
1663	 20086.8059178136 
1664	 19904.5299666816 
1665	 19724.5117666303 
1666	 19537.7770897821 
1667	 19355.6046245797 
1668	 19171.7067660551 
1669	 18996.3733331788 
1670	 18819.4564453936 
1671	 18660.5270219958 
1672	 18510.5309389511 
1673	 18374.7482345951 
1674	 18254.5937171434 
1675	 18138.685036877 
1676	 18032.6572806811 
1677	 17934.3178946222 
1678	 17843.4120590112 
1679	 17760.5006164528 
1680	 17687.6451990372 
1681	 17618.9149257143 
1682	 17555.9064376747 
1683	 17501.790087861 
1684	 17453.184678952 
1685	 17410.0860209621 
1686	 17369.1041305015 
1687	 17331.8093706233 
1688	 17295.9262324484 
1689	 17264.3578818916 
1690	 17232.1502985765 
1691	 17200.8233295687 
1692	 17169.3655205832 
1693	 17138.7173909932 
1694	 17106.8686071833 
1695	 17074.388412022 
1696	 17041.7928923313 
1697	 17007.1952043323 
1698	 16974.7481435597 
1699	 16942.5475649823 
1700	 16912.4296438827 
1701	 16886.5480106157 
1702	 16856.9120150351 
1703	 16826.3236749332 
1704	 16796.0866359299 
1705	 16762.4360701492 
1706	 16732.3792074284 
1707	 16705.1222666169 
1708	 16677.4998867752 
1709	 16651.8196246494 
1710	 16623.9759223919 
1711	 16596.9744093031 
1712	 16566.0432324005 
1713	 16531.5875324876 
1714	 16498.8121590197 
1715	 16463.0582465815 
1716	 16431.384921713 
1717	 16402.8405385001 
1718	 16372.1544641434 
1719	 16342.3085927165 
1720	 16311.6476075676 
1721	 16279.0894485666 
1722	 16249.2994760656 
1723	 16219.8554877119 
1724	 16193.1019881995 
1725	 16169.1606641463 
1726	 16142.5700182604 
1727	 16118.3570754266 
1728	 16094.6928123619 
1729	 16068.9581873884 
1730	 16045.5367262108 
1731	 16022.5169682849 
1732	 15998.6805340519 
1733	 15975.5740368649 
1734	 15953.5958580037 
1735	 15932.0478812631 
1736	 15909.5759303272 
1737	 15889.4688827247 
1738	 15870.821721891 
1739	 15853.0491036579 
1740	 15838.514444562 
1741	 15821.8245589077 
1742	 15804.2301458937 
1743	 15787.3850470247 
1744	 15769.6341799187 
1745	 15753.1954285678 
1746	 15737.9431287467 
1747	 15723.1853554311 
1748	 15708.4711647549 
1749	 15694.9681522194 
1750	 15682.2965964968 
1751	 15671.0492951841 
1752	 15661.1754655721 
1753	 15651.1363091294 
1754	 15643.5606357809 
1755	 15630.5264532134 
1756	 9226.74791152076 
1757	 9355.20064578069 
1758	 9502.29991044963 
1759	 9627.87190475394 
1760	 9750.81529685882 
1761	 9873.94122556562 
1762	 9981.93759229286 
1763	 10080.4811823519 
1764	 10200.7430534224 
1765	 10343.5432090276 
1766	 10466.365619966 
1767	 10590.1229589246 
1768	 10710.7864020351 
1769	 10816.3306161102 
1770	 10930.4072289514 
1771	 11058.6369787611 
1772	 11182.7382299292 
1773	 11310.2634995538 
1774	 11442.7633538107 
1775	 11571.3454029135 
1776	 11695.6888906777 
1777	 11829.594229399 
1778	 11974.5405038942 
1779	 12110.6354310456 
1780	 12227.470165754 
1781	 12352.7135765453 
1782	 12461.877941976 
1783	 12563.1737122943 
1784	 12678.7584275251 
1785	 12805.3866743606 
1786	 12936.3077691865 
1787	 13067.8337238408 
1788	 13187.3392647973 
1789	 13309.7662153756 
1790	 13437.4137967172 
1791	 13562.0327122179 
1792	 13700.7440335935 
1793	 13844.4628234459 
1794	 13973.9760479886 
1795	 14087.8661574709 
1796	 14208.5177302113 
1797	 14335.962693296 
1798	 14437.7470487286 
1799	 14554.8332236322 
1800	 14669.9460576783 
1801	 14769.1829566898 
1802	 14896.6006665598 
1803	 15008.6873036369 
1804	 15130.9626388861 
1805	 15218.3178938835 
1806	 15286.4086033061 
1807	 15349.2930930215 
1808	 15393.4843391906 
1809	 15433.1872445136 
1810	 15490.4904218541 
1811	 15551.9008499967 
1812	 15606.7536549896 
1813	 15661.8970670261 
1814	 15714.439811326 
1815	 15766.0803473164 
1816	 15810.7766675814 
1817	 15845.6677335911 
1818	 15894.0046977402 
1819	 15926.09059179 
1820	 15954.9733729325 
1821	 15989.3837680277 
1822	 16023.3611339251 
1823	 16057.8266630392 
1824	 16104.6491759984 
1825	 16133.2898927835 
1826	 16149.6518968532 
1827	 16170.8749599091 
1828	 16184.8974439406 
1829	 16196.8801778135 
1830	 16213.8725662096 
1831	 16232.7836403716 
1832	 16258.3449874282 
1833	 16282.9627609281 
1834	 16316.4006325574 
1835	 16357.0855893757 
1836	 16404.2073048358 
1837	 16456.7401868373 
1838	 16515.6162045586 
1839	 16594.7640745692 
1840	 16659.6032591258 
1841	 16724.4318003784 
1842	 16792.5248350964 
1843	 16851.5412297479 
1844	 16900.1982875669 
1845	 16955.2378385569 
1846	 17005.1498670053 
1847	 17061.5704220747 
1848	 17125.7740141397 
1849	 17180.1096740969 
1850	 17241.5135650358 
1851	 17319.7717698069 
1852	 17383.4420702157 
1853	 17454.4173510219 
1854	 17501.3731236853 
1855	 17535.2374996995 
1856	 17558.0751741438 
1857	 17560.422869208 
1858	 17568.1942072094 
1859	 17569.1683984063 
1860	 17559.801518411 
1861	 17537.5058195531 
1862	 17507.9815167142 
1863	 17472.3231607753 
1864	 17406.2455639695 
1865	 17377.0222518304 
1866	 17339.2093058367 
1867	 17342.0139462846 
1868	 17370.1595056822 
1869	 17429.5245360483 
1870	 17506.5790462258 
1871	 17604.8303837136 
1872	 17722.1663881591 
1873	 17850.0469695482 
1874	 17979.1789635072 
1875	 18102.6090439555 
1876	 18204.5231025394 
1877	 18290.2168868366 
1878	 18365.5443122422 
1879	 18420.2404351095 
1880	 18462.6641127325 
1881	 18488.3162158323 
1882	 18491.1727661043 
1883	 18490.9378984249 
1884	 18468.0966501757 
1885	 18447.1542085874 
1886	 18421.2273763113 
1887	 18392.0059914326 
1888	 18355.1640450827 
1889	 18328.4904185987 
1890	 18293.8270903924 
1891	 18251.9532087047 
1892	 18202.521957587 
1893	 18135.916922005 
1894	 18054.5410352427 
1895	 17976.075981597 
1896	 17912.5497435831 
1897	 17855.9078452672 
1898	 17810.8328427878 
1899	 17767.2357070331 
1900	 17731.1795779817 
1901	 17691.5868079842 
1902	 17664.8694868756 
1903	 17652.0879352305 
1904	 17657.9726055657 
1905	 17676.35540358 
1906	 17686.4736624168 
1907	 17695.2621444759 
1908	 17703.5823122122 
1909	 17702.1559148988 
1910	 17710.8085559953 
1911	 17732.5754743428 
1912	 17745.6927286593 
1913	 17760.2355016624 
1914	 17767.9546974136 
1915	 17774.0220998504 
1916	 17762.9862850773 
1917	 17765.8179186426 
1918	 17784.2076642608 
1919	 17803.3138540954 
1920	 17835.3729961935 
1921	 17863.9737255787 
1922	 17887.4564750607 
1923	 17921.650913215 
1924	 17966.8409961924 
1925	 18005.2037826709 
1926	 18047.8467532825 
1927	 18095.9060794815 
1928	 18126.9335038192 
1929	 18148.0786556928 
1930	 18156.9426761829 
1931	 18149.048693174 
1932	 18145.5256063068 
1933	 18125.2643402774 
1934	 18120.5734358687 
1935	 18121.2945319339 
1936	 18123.3281543189 
1937	 18135.5739610476 
1938	 18141.814544858 
1939	 18145.6944547138 
1940	 18149.8909739297 
1941	 18155.3551103977 
1942	 18162.9508009744 
1943	 18159.954724883 
1944	 18160.4152936149 
1945	 18146.2905145394 
1946	 18112.1410824529 
1947	 18089.025754072 
1948	 18061.0464340842 
1949	 18037.7603785315 
1950	 18025.5332229865 
1951	 18003.823199314 
1952	 17979.5061271679 
1953	 17951.3230685575 
1954	 17921.2835481042 
1955	 17882.9947850834 
1956	 17851.4932507671 
1957	 17824.4215351243 
1958	 17790.505134781 
1959	 17755.6085967513 
1960	 17718.6682104109 
1961	 17679.6003629714 
1962	 17635.5165678555 
1963	 17588.1177958924 
1964	 17539.933750182 
1965	 17488.0375481658 
1966	 17431.9714007752 
1967	 17376.7989228546 
1968	 17323.6085684525 
1969	 17264.311604123 
1970	 17203.2463690416 
1971	 17136.0047441701 
1972	 17062.7483413727 
1973	 16989.7191380856 
1974	 16906.1538011028 
1975	 16832.0361234288 
1976	 16770.4558801906 
1977	 16695.3411826442 
1978	 16618.1009800854 
1979	 16538.2293683632 
1980	 16452.109942035 
1981	 16352.8303531362 
1982	 16262.1122650982 
1983	 16171.115452746 
1984	 16084.2514153497 
1985	 15998.9342858618 
1986	 15912.3286650985 
1987	 15834.8595007993 
1988	 15743.622763218 
1989	 15641.8720045396 
1990	 15545.800590893 
1991	 15438.7711700798 
1992	 15341.9561662864 
1993	 15256.8301437244 
1994	 15180.8480886504 
1995	 15098.9197928756 
1996	 15026.0394260518 
1997	 14938.2967104494 
1998	 14838.0863127203 
1999	 14744.3821009801 
2000	 14645.4661228663 
2001	 14554.1490713183 
2002	 14477.456034319 
2003	 14385.284987051 
2004	 14289.1488289492 
2005	 14185.6766476187 
2006	 14078.4081654584 
2007	 13974.7346556634 
2008	 13882.2170122201 
2009	 13796.9628815086 
2010	 13707.2724778593 
2011	 13621.1395048043 
2012	 13528.1351374979 
2013	 13426.0714731269 
2014	 13335.979535818 
2015	 13247.2037578913 
2016	 13165.6910091127 
2017	 13103.6992571733 
2018	 13020.8782230458 
2019	 12927.1075563117 
2020	 12838.8257360335 
2021	 12742.9995348671 
2022	 12656.8817589505 
2023	 12589.6995593889 
2024	 12509.0474552206 
2025	 12424.7888886188 
2026	 12331.7428531411 
2027	 12248.2899764546 
2028	 12161.3790928138 
2029	 12086.4169312598 
2030	 12029.5960252314 
2031	 11955.6955470694 
2032	 11879.5554513198 
2033	 11795.6082179962 
2034	 11719.9020470133 
2035	 11645.1415820721 
2036	 11576.1380706761 
2037	 11518.3019338967 
2038	 11447.9403022793 
2039	 11381.6020548298 
2040	 11333.4141328015 
2041	 11276.4649786277 
2042	 11218.1934621448 
2043	 11160.1214157132 
2044	 11101.0194675523 
2045	 11037.3543668065 
2046	 10979.1459881072 
2047	 10921.0136268667 
2048	 10870.0260257925 
2049	 10823.3180627955 
2050	 10776.1734182319 
2051	 10735.2674586004 
2052	 10692.6521696989 
2053	 10644.2396370883 
2054	 10588.621325339 
2055	 10532.4085141656 
2056	 10479.648875483 
2057	 10428.1243894781 
2058	 10386.1469243574 
2059	 10346.9450265398 
2060	 10317.3658677481 
2061	 10277.7693661836 
2062	 10242.6536557003 
2063	 10194.3884061978 
2064	 10130.9383428999 
2065	 10077.7859751555 
2066	 10029.8146211437 
2067	 9991.45580101796 
2068	 9955.49295933414 
2069	 9922.20306700036 
2070	 9882.07991789457 
2071	 9823.97088027581 
2072	 9773.31516313876 
2073	 9725.87543240512 
2074	 9668.29149166259 
2075	 9620.05906355059 
2076	 9564.47209156199 
2077	 9493.9107494662 
2078	 9441.70590275898 
2079	 9392.3753646498 
2080	 9348.60615986282 
2081	 9320.05248991674 
2082	 9292.47011752131 
2083	 9244.85759417214 
2084	 9200.89638712098 
2085	 9139.84223814749 
2086	 9081.77525356229 
2087	 9033.85677255859 
2088	 8980.44360784227 
2089	 8938.45949380545 
2090	 8893.13933644878 
2091	 8842.8326369235 
2092	 8807.29564463456 
2093	 8758.5443491465 
2094	 8710.71801019737 
2095	 8664.24618112025 
2096	 8613.5036135545 
2097	 8561.16611917832 
2098	 8511.68217313107 
2099	 8458.73342569948 
2100	 8403.86890453746 
2101	 8357.87845603632 
2102	 8305.32155438108 
2103	 8249.75464616588 
2104	 8181.57563350337 
2105	 8100.51898025148 
2106	 8024.00274769346 
2107	 7946.86457558452 
2108	 7879.04998541226 
2109	 7821.28033695101 
2110	 7755.64979683864 
2111	 7701.80619449365 
2112	 7653.1049023414 
2113	 7597.81394787601 
2114	 7539.04959231718 
2115	 7478.56684143173 
2116	 7416.18931244033 
2117	 7339.28449544532 
2118	 7277.76874141059 
2119	 7221.56785358023 
2120	 7179.38295638471 
2121	 7136.54009260956 
2122	 7104.24255207676 
2123	 7061.27267783997 
2124	 7004.4170173343 
2125	 6945.87142587315 
2126	 6885.68288432094 
2127	 6839.53803464157 
2128	 6802.60731032947 
2129	 6765.8158325561 
2130	 6729.14377857982 
2131	 6695.83676569814 
2132	 6658.94730250379 
2133	 6621.36591692821 
2134	 6592.59562615184 
2135	 6555.00752669315 
2136	 6504.53369212455 
2137	 6468.81765807479 
2138	 6431.24121127329 
2139	 6400.39647345036 
2140	 6380.86894360175 
2141	 6365.86907154776 
2142	 6338.29112880752 
2143	 6321.28633961654 
2144	 6305.07139193894 
2145	 6287.06703479152 
2146	 6279.59298514987 
2147	 6284.55722497336 
2148	 6287.27319937198 
2149	 6293.42463542323 
2150	 6307.85319782493 
2151	 6323.96288720512 
2152	 6341.74086738194 
2153	 6371.74784727855 
2154	 6410.22349612745 
2155	 6444.6178624161 
2156	 6486.8736773514 
2157	 6525.64982899474 
2158	 6567.32951176923 
2159	 6612.90792320436 
2160	 6655.18063827067 
2161	 6701.68587556761 
2162	 6740.04396644841 
2163	 6772.80227961379 
2164	 6801.15623526774 
2165	 6822.91925952736 
2166	 6849.66485197321 
2167	 6883.27248709572 
2168	 6906.5303712148 
2169	 6938.65069738236 
2170	 6963.84021095549 
2171	 6977.37637491554 
2172	 6991.77731284199 
2173	 7001.92906882415 
2174	 7019.85393282677 
2175	 7042.84919336074 
2176	 7065.90286898561 
2177	 7095.79613214428 
2178	 7116.3073364462 
2179	 7135.85802141008 
2180	 7169.39410560799 
2181	 7196.23660038941 
2182	 7227.50464133575 
2183	 7253.60245692832 
2184	 7278.81344943008 
2185	 7296.13047827056 
2186	 7311.18499130445 
2187	 7316.05681717877 
2188	 7317.6605450188 
2189	 7300.82094673071 
2190	 7276.15733529752 
2191	 7241.34603434815 
2192	 7203.69448077644 
2193	 7175.36567063289 
2194	 7142.84466733427 
2195	 7120.85050064951 
2196	 7098.47636164267 
2197	 7075.73711023395 
2198	 7061.64390059384 
2199	 7041.99494988977 
2200	 7037.76944147737 
2201	 7030.35593380214 
2202	 7017.60725929059 
2203	 7014.16099625106 
2204	 7001.34959451039 
2205	 6991.70459729322 
2206	 6989.16417779086 
2207	 6983.69699342951 
2208	 6977.24368019194 
2209	 6965.09129340302 
2210	 6947.80042267126 
2211	 6919.8319004811 
2212	 6902.04129347746 
2213	 6887.55031471055 
2214	 6873.42890958725 
2215	 6867.17050886135 
2216	 6850.40473293618 
2217	 6827.10654659294 
2218	 6796.25191695192 
2219	 6760.28273105848 
2220	 6719.23692149611 
2221	 6672.31074555652 
2222	 6628.28221821679 
2223	 6585.33481068648 
2224	 6552.18174012989 
2225	 6520.33701740672 
2226	 6486.15892606501 
2227	 6445.78206776656 
2228	 6397.59170473187 
2229	 6356.61499571208 
2230	 6320.88399105387 
2231	 6291.56004619565 
2232	 6268.78824429697 
2233	 6230.7426535359 
2234	 6182.123555136 
2235	 6125.47016454263 
2236	 6058.27379833482 
2237	 6005.27473481823 
2238	 5965.17888193751 
2239	 5924.22454734533 
2240	 5896.1996537722 
2241	 5867.05630374973 
2242	 5826.63603825428 
2243	 5785.25543917401 
2244	 5739.33114040902 
2245	 5693.77153088292 
2246	 5640.97386350212 
2247	 5598.39848688229 
2248	 5561.25043902395 
2249	 5525.71067035058 
2250	 5498.12852100241 
2251	 5468.09075205004 
2252	 5433.1747305049 
2253	 5408.27828899116 
2254	 5389.79308396691 
2255	 5367.27097390026 
2256	 5348.00979806632 
2257	 5332.16792859406 
2258	 5310.32686846379 
2259	 5278.55876137378 
2260	 5246.83668921323 
2261	 5211.29459294238 
2262	 5171.51420196125 
2263	 5137.5113602541 
2264	 5105.77716972373 
2265	 5082.31597846705 
2266	 5068.87343179161 
2267	 5055.73512296852 
2268	 5041.33887416637 
2269	 5012.05478335725 
2270	 4968.03594422058 
2271	 4918.40619844642 
2272	 4869.14732251904 
2273	 4827.32045052538 
2274	 4795.21543063334 
2275	 4766.17194699693 
2276	 4730.33852511458 
2277	 4701.59658386825 
2278	 4675.82921338897 
2279	 4643.06100997975 
2280	 4614.95027835624 
2281	 4580.11032388702 
2282	 4532.48932788453 
2283	 4490.20637036953 
2284	 4446.94579787684 
2285	 4410.7377239348 
2286	 4378.54878714093 
2287	 4355.8665839484 
2288	 4321.88257768034 
2289	 4283.98563557012 
2290	 4250.05603161082 
2291	 4209.76155323649 
2292	 4179.2027406377 
2293	 4160.01910329909 
2294	 4134.73442178126 
2295	 4106.82109358075 
2296	 4085.0478832207 
2297	 4065.89200864105 
2298	 4048.47410233964 
2299	 4043.56221057865 
2300	 4022.7721028511 
2301	 3991.89069647566 
2302	 3962.65267003356 
2303	 3921.47817804616 
2304	 3888.55372997455 
2305	 3860.35965842756 
2306	 3835.50853249146 
2307	 3818.3056868514 
2308	 3796.15014419443 
2309	 3776.47894968249 
2310	 3749.71824311039 
2311	 3721.0122259153 
2312	 3685.32614821214 
2313	 3658.18083635994 
2314	 3634.26116186534 
2315	 3616.14318092848 
2316	 3599.61913158289 
2317	 3573.81792582162 
2318	 3549.68088137585 
2319	 3512.63279668815 
2320	 3474.65321096807 
2321	 3445.29731018049 
2322	 3408.51701624293 
2323	 3370.72398970066 
2324	 3335.82587693978 
2325	 3290.64494001739 
2326	 3243.20204459684 
2327	 3210.83132155912 
2328	 3179.81255061347 
2329	 3151.23759473707 
2330	 3131.45122690499 
2331	 3109.50233925457 
2332	 3082.74101107064 
2333	 3051.91369672492 
2334	 3015.50481723202 
2335	 2971.43820567202 
2336	 2931.86814257709 
2337	 2901.06551731068 
2338	 2871.747620553 
2339	 2851.59949722196 
2340	 2825.55860831637 
2341	 2799.15963975902 
2342	 2783.16280404153 
2343	 2759.44806827713 
2344	 2740.09750573504 
2345	 2714.51444170731 
2346	 2683.24624098426 
2347	 2647.88429657087 
2348	 2612.17212870382 
2349	 2590.63715458443 
2350	 2566.46688549813 
2351	 2549.74980768315 
2352	 2528.44212373245 
2353	 2500.39198251122 
2354	 2471.80402048698 
2355	 2443.67897247104 
2356	 2426.36505524018 
2357	 2403.3363422174 
2358	 2389.73210763076 
2359	 2372.19226373484 
2360	 2349.49049379793 
2361	 2339.08162240552 
2362	 2311.72822301283 
2363	 2288.42330521842 
2364	 2266.11148342671 
2365	 2233.7846855863 
2366	 2213.00393442895 
2367	 2193.90219883624 
2368	 2170.11301911078 
2369	 2138.71211868475 
2370	 2111.14983743961 
2371	 2096.69493989953 
2372	 2084.70527098733 
2373	 2077.91422201731 
2374	 2061.84312259644 
2375	 2025.35676983005 
2376	 1993.6285358618 
2377	 1959.49739744688 
2378	 1933.52051300311 
2379	 1924.00512362506 
2380	 1912.24297720217 
2381	 1899.92111077141 
2382	 1880.4102173477 
2383	 1861.56117646671 
2384	 1837.81003249396 
2385	 1814.39068967178 
2386	 1803.14679317967 
2387	 1783.62318616619 
2388	 1762.09388570234 
2389	 1741.70576603611 
2390	 1717.10261430708 
2391	 1696.58487855708 
2392	 1669.47368283097 
2393	 1647.03931848001 
2394	 1634.27291676416 
2395	 1624.9427807352 
2396	 1622.96166549128 
2397	 1615.2495322581 
2398	 1601.81616205105 
2399	 1584.50538786382 
2400	 1571.44785310929 
2401	 1561.48973541839 
2402	 1552.84896088576 
2403	 1546.89500587077 
2404	 1528.03627954411 
2405	 1510.5444541918 
2406	 1497.85056791 
2407	 1479.75813513814 
2408	 1468.2958013106 
2409	 1453.18275274372 
2410	 1436.21843646976 
2411	 1421.37867838608 
2412	 1400.9587845217 
2413	 1385.19583119017 
2414	 1370.89040400008 
2415	 1359.72548817487 
2416	 1353.64515634427 
2417	 1343.5497725296 
2418	 1328.46534283679 
2419	 1301.44253170254 
2420	 1272.65738286274 
2421	 1255.33519944868 
2422	 1235.03668693553 
2423	 1224.25788159996 
2424	 1223.6764174322 
2425	 1214.85148841693 
2426	 1208.71809392014 
2427	 1204.75131423026 
2428	 1194.11434236727 
2429	 1184.85347438259 
2430	 1179.27993705986 
2431	 1170.97977063271 
2432	 1154.49714517611 
2433	 1135.78189518631 
2434	 1117.73118157776 
2435	 1099.47105246552 
2436	 1089.26165880233 
2437	 1066.91027536403 
2438	 1044.80430995703 
2439	 1032.996807844 
2440	 1024.58492326738 
2441	 1033.26426529906 
2442	 1033.77500635113 
2443	 1019.60000248662 
2444	 992.721526037549 
2445	 963.256446615926 
2446	 942.812169802707 
2447	 929.910179771824 
2448	 931.167069694505 
2449	 931.437056326845 
2450	 927.07199400799 
2451	 917.788021127429 
2452	 906.711389075613 
2453	 896.286733341707 
2454	 891.624573349763 
2455	 897.194588846205 
2456	 900.18532406848 
2457	 904.333447553626 
2458	 906.315300389219 
2459	 905.810326919367 
2460	 910.298863055869 
2461	 904.119857260653 
2462	 889.128571961895 
2463	 867.339717480921 
2464	 833.88681864666 
2465	 805.386760652254 
2466	 786.682770577758 
2467	 776.768649457434 
2468	 775.588845708149 
2469	 779.537008555019 
2470	 785.004191210667 
2471	 782.160250799526 
2472	 768.867487840919 
2473	 758.602065063296 
2474	 745.443763692161 
2475	 728.7488997186 
2476	 723.154048396493 
2477	 717.297029328499 
2478	 709.048295971666 
2479	 700.904599489215 
2480	 688.770044147357 
2481	 677.207704860666 
2482	 666.995388489084 
2483	 666.560700210457 
2484	 661.716816693561 
2485	 644.376933168587 
2486	 627.890036235721 
2487	 611.489030131467 
2488	 604.008055442807 
2489	 605.674753394606 
2490	 607.880177503598 
2491	 608.919500891738 
2492	 601.666855627325 
2493	 588.892813079786 
2494	 574.886136188951 
2495	 554.737112299634 
2496	 533.992676464797 
2497	 510.948970045192 
2498	 485.764264278581 
2499	 459.043979989001 
2500	 436.390113313455 
