Wavelength	1mm_BlackABS00000.asd
350	-0.919141917291644 
351	-0.733315686152317 
352	-0.289218449440049 
353	-0.267049736731933 
354	 0.255206240280448 
355	 0.5517391873375 
356	 0.095821653215495 
357	-0.274435578689415 
358	-0.860792391430034 
359	-1.1285417929342 
360	 8.03916228912307E-02 
361	 0.261729870644981 
362	-0.580681048944021 
363	-1.57942658892226 
364	-1.09674721592715 
365	-0.504331702911499 
366	-0.37316242868046 
367	-0.166717411066096 
368	-0.415733689164903 
369	-0.93106694490172 
370	-1.23465380594364 
371	-0.608089236666215 
372	-0.580551548108669 
373	-1.45707260885317 
374	-0.70694207301104 
375	-0.703944390183503 
376	-1.23450468970841 
377	-1.00078128732649 
378	-1.69859217039803 
379	-1.39814849315744 
380	 0.74566647866049 
381	 1.09726226180251 
382	-0.240127249074248 
383	-1.57537628729971 
384	 0.183639943819988 
385	-9.87179398060118E-02 
386	-1.05895056221254 
387	-0.416881356720343 
388	 3.97350441688695E-02 
389	 0.209332812390165 
390	 0.193936492258065 
391	 0.398741281223159 
392	-1.26894393518964 
393	-2.43331022388269 
394	 0.369569071438285 
395	 1.65032434108667 
396	 1.03546623492374 
397	-0.491736903062903 
398	-0.31819452066891 
399	-7.50840678774924E-02 
400	 5.99937542723999E-02 
401	 0.921688649926072 
402	 1.73524290744759 
403	 1.16523604028206 
404	-1.13474605575418 
405	-0.588127236544858 
406	 0.235201738313627 
407	-6.46938057043206E-02 
408	-0.867755188569746 
409	-0.702535575047133 
410	-0.630034612273144 
411	-2.3569399152854 
412	-1.56626490531443 
413	-3.99956201364644E-02 
414	 0.340928908946393 
415	-0.380372044446538 
416	-0.326252231561276 
417	 0.250447479030541 
418	-0.798855224086625 
419	-1.07392988042893 
420	-0.455245593434711 
421	 0.412300515568298 
422	 0.423595133803313 
423	 0.454179757698979 
424	 0.822626157631131 
425	 0.536189763764597 
426	 6.59888083413109E-02 
427	-0.121902672807195 
428	 0.383598433916492 
429	-0.125806207896638 
430	-0.485602676647341 
431	 0.310961518345029 
432	 0.696423927935861 
433	 0.784297173350293 
434	 0.624608013070102 
435	 0.162374637829985 
436	-1.15493686245722 
437	-1.73898511568437 
438	 0.264221987637641 
439	 0.991408293722629 
440	 0.369284088162509 
441	-0.67895353356912 
442	 0.259332533600855 
443	-0.125523719554164 
444	-1.78960222704565 
445	-1.69027002199671 
446	-1.68228271365448 
447	-1.29493808053604 
448	 0.164919034793913 
449	 0.982463093958554 
450	 0.612459050571195 
451	-0.505163268062259 
452	 6.99729836335007E-02 
453	 6.53418023297613E-02 
454	-0.869930858321981 
455	-1.84422351648448 
456	-1.61969122200963 
457	-1.13099515493561 
458	-1.330411991598 
459	-0.200213148633536 
460	 0.455198563325902 
461	-0.256373745869779 
462	-1.72361514798374 
463	-0.990639851287014 
464	 0.313184626987991 
465	-1.78338759678915 
466	-2.2154472158768 
467	-1.46675698231292 
468	-0.878277631296511 
469	-0.470439880315596 
470	-0.13141566930544 
471	-2.73132622712308E-04 
472	-0.730331348173228 
473	-1.02248772204129 
474	-0.829263481035893 
475	-0.721930457385551 
476	-1.10116355419905 
477	-1.64061354219384 
478	-1.88781352961875 
479	-1.44811096864417 
480	-0.855558174765287 
481	-0.611431627639367 
482	-1.34261259314642 
483	-0.702317071253949 
484	 0.386157152039827 
485	-0.290167856110826 
486	-1.5297656037098 
487	-1.43348726538185 
488	 0.456683960743142 
489	-0.556913508014629 
490	-2.26442274389716 
491	-2.97445008966357 
492	-1.42055649640202 
493	-0.740615059791092 
494	-1.12506276530382 
495	-1.4307742200574 
496	-0.387878561997642 
497	 0.252749130247398 
498	-0.726085948844693 
499	-1.27429345764455 
500	-1.31891965086027 
501	-0.924223544705101 
502	-0.187402077149114 
503	-1.20138000891861 
504	-2.80409847368558 
505	-2.60906834468267 
506	-2.58586263351373 
507	-1.90190098549197 
508	-0.263419007932544 
509	-0.561986630402313 
510	-1.59421636522991 
511	-2.36595216427498 
512	-2.05167910055454 
513	-1.86976195137612 
514	-2.00029024834935 
515	-2.1688883894142 
516	-2.08097104167903 
517	-1.91785521720894 
518	-1.77102209034972 
519	-0.832682152587305 
520	-1.3147856347533 
521	-2.99061975833218 
522	-1.85564416859161 
523	-1.88541180977178 
524	-2.51908864656491 
525	-1.41471949725851 
526	-1.88800459249276 
527	-2.13771919930343 
528	-0.790410065971787 
529	-2.26047566205436 
530	-1.97907459284676 
531	 0.493401908892151 
532	-1.74321758484025 
533	-2.40088993603117 
534	-1.81499535843774 
535	-3.33162028818862 
536	-2.88585479294711 
537	-1.73875856471545 
538	-1.68784610688196 
539	-1.73989750125152 
540	-1.76677028731304 
541	-1.90531192652273 
542	-3.03346670140089 
543	-2.13118089770028 
544	-0.27416484092252 
545	-1.0580853916368 
546	-1.75754258633382 
547	-2.28689000954001 
548	-2.92456010819299 
549	-2.56410267177034 
550	-2.50469311898203 
551	-3.01569582377636 
552	-1.67411155172334 
553	-1.17123686913383 
554	-2.02036287687192 
555	-3.21517777856241 
556	-4.29486189771452 
557	-4.10579728863823 
558	-2.05673882672138 
559	-2.03707373216839 
560	-2.29370568022908 
561	-1.66481323937994 
562	-1.78806514748742 
563	-2.08118228756358 
564	-2.02728000767534 
565	-1.03522025369963 
566	-0.980824136516395 
567	-1.70653429484503 
568	-2.35077665470219 
569	-2.86836513469939 
570	-2.89120140681607 
571	-2.40344427768528 
572	-2.54988940634872 
573	-2.09386172806774 
574	-0.934904004613418 
575	-0.238633201509871 
576	-1.11950483876595 
577	-2.5669514440162 
578	-2.7394318336303 
579	-3.29447029865158 
580	-3.40838698475863 
581	-2.49724075704438 
582	-2.21898033111174 
583	-2.1889857370871 
584	-2.22186724441734 
585	-2.60166819318828 
586	-1.92851239555582 
587	-1.54814826199068 
588	-4.0255150452978 
589	-3.89042917010734 
590	-2.70996465636643 
591	-2.87038068453889 
592	-3.11959779261988 
593	-2.49336733283574 
594	-1.12822957097863 
595	-1.35350726444435 
596	-1.29830499321138 
597	-1.35025355096404 
598	-3.27758209059032 
599	-2.39794915962613 
600	-0.872375900976481 
601	-1.74312259364953 
602	-0.764997482922674 
603	-0.415278155373935 
604	-1.91699211324249 
605	-2.18091047803998 
606	-3.06233825181305 
607	-3.77907158921249 
608	-1.05904156799434 
609	-0.681846941041049 
610	-1.93860006140863 
611	-2.20854621874527 
612	-3.32914706928819 
613	-3.80720254915632 
614	-2.72324248995747 
615	-1.81918346537317 
616	-1.44855413553287 
617	-1.61778428068007 
618	-1.91338296843 
619	-2.31093971134941 
620	-2.71919922144455 
621	-2.99538817011192 
622	-2.4546694995048 
623	-1.91357106733244 
624	-2.18500864843897 
625	-3.22579816565309 
626	-3.41043842425643 
627	-2.49384731587351 
628	-2.51773772454964 
629	-2.51836267664106 
630	-2.04390849453982 
631	-0.906730608294319 
632	-1.65161959862716 
633	-3.33227663629782 
634	-4.23725667998564 
635	-3.24637488274709 
636	-2.47665371800451 
637	-2.70080871068391 
638	-1.37191396175876 
639	-1.58689706706868 
640	-3.02858337170115 
641	-2.91930416372353 
642	-2.6535041597782 
643	-2.13141472130445 
644	-1.18291775300545 
645	-1.5541421964147 
646	-2.20551418741418 
647	-2.46293441068042 
648	-3.48321979340229 
649	-3.08731061421176 
650	-1.6602891901273 
651	-2.19221751764872 
652	-1.3976235471834 
653	-0.888396211595274 
654	-3.27710072859496 
655	-3.6218972554082 
656	-2.4974644370935 
657	-1.34055080214811 
658	-1.74326774799995 
659	-2.57659416098475 
660	-3.27057262618919 
661	-3.98809488863979 
662	-3.69690733052589 
663	-2.57528711529088 
664	-1.47413046331029 
665	-1.71556213252183 
666	-2.58429485097387 
667	-3.08126465558524 
668	-2.61643737609089 
669	-3.03755372809164 
670	-4.31609200769298 
671	-3.13047474496661 
672	-1.65397958895791 
673	-0.97613388283502 
674	-1.73423361610947 
675	-2.30099720374835 
676	-2.900400028668 
677	-3.81973020404599 
678	-3.58360336009897 
679	-2.67643611631785 
680	-1.73827057605348 
681	-1.49171813601879 
682	-2.21250880373385 
683	-3.09623527752363 
684	-2.512255634061 
685	-2.17931972549821 
686	-2.19105053066267 
687	-2.30841878280317 
688	-2.98466693105202 
689	-3.56705229046692 
690	-3.6120582216944 
691	-3.15027790324587 
692	-3.44201154236533 
693	-4.06819231948599 
694	-3.14109458678463 
695	-2.59934970808278 
696	-2.97148136570196 
697	-4.02828570899184 
698	-3.28186723802137 
699	-2.53622887608127 
700	-2.98437689838523 
701	-3.14119009599789 
702	-2.68883737234606 
703	-1.74449902298787 
704	-0.877994545725704 
705	-1.11107768259237 
706	-2.07037875483611 
707	-2.82993941933645 
708	-3.14523438813141 
709	-2.90715970942274 
710	-2.30668847228015 
711	-2.26341211667316 
712	-2.25856460886502 
713	-2.27803137631906 
714	-2.90385172496997 
715	-3.44288277050014 
716	-3.62297967636877 
717	-3.3328091132323 
718	-2.33107009309821 
719	-1.93818859858604 
720	-2.8755553560014 
721	-3.49077261642327 
722	-3.04574581346977 
723	-1.92593147071589 
724	-1.9564601032651 
725	-2.73973368773402 
726	-3.57397976908555 
727	-3.57257100866181 
728	-2.7841899412483 
729	-2.56178688584227 
730	-3.54361308141217 
731	-3.20570574229601 
732	-3.19635224030757 
733	-3.57850877023985 
734	-2.04690674713409 
735	-2.38457978514547 
736	-3.49917946845273 
737	-2.48280292029478 
738	-2.37740426115831 
739	-2.558062552529 
740	-2.09760993679315 
741	-0.718219492394657 
742	-1.85478940782372 
743	-4.75763494559825 
744	-2.62341516593312 
745	-2.00581444875924 
746	-2.7957183889022 
747	-2.33886278271491 
748	-2.03501474033208 
749	-2.52111029968324 
750	-3.64501491389741 
751	-2.83630907130089 
752	-2.33049325205914 
753	-3.00929842163722 
754	-4.13253845672235 
755	-3.98255313195297 
756	-3.12656932946184 
757	-3.08808642416482 
758	-3.36002112967763 
759	-3.27553241341379 
760	-2.83558371948617 
761	-4.74241174472219 
762	-4.24020821630116 
763	-1.52406096086598 
764	-2.83991737531883 
765	-4.56098948421983 
766	-4.51861018446355 
767	-1.65082277273939 
768	-2.06212867833556 
769	-2.79361699645868 
770	-1.6220270377629 
771	-2.06275273913766 
772	-3.34090963650327 
773	-4.14499686063222 
774	-2.38642334232319 
775	-2.22379441442226 
776	-2.70266693406775 
777	-1.58674279551378 
778	-0.926906902090251 
779	-1.98847929797685 
780	-4.43053339546734 
781	-4.18920361093572 
782	-3.32877247897628 
783	-2.67881232958585 
784	-2.21473200782422 
785	-2.42087586148497 
786	-3.03996144634889 
787	-3.39244346517132 
788	-1.67046854756146 
789	-0.580047743066688 
790	-1.47204213686284 
791	-2.53735620453611 
792	-2.90770599033404 
793	-3.32556187124662 
794	-5.48675938540298 
795	-4.19242636773506 
796	-2.20908563385721 
797	-2.71682404393398 
798	-2.31034878812267 
799	-1.64876755416157 
800	-1.57205086452133 
801	-3.34347394119065 
802	-2.74600292641509 
803	-1.31437821041068 
804	-2.88171700904756 
805	-3.09337745928165 
806	-3.24188263499507 
807	-4.3321402047317 
808	-3.5894855375328 
809	-1.86459763289382 
810	-0.596063073683307 
811	-2.00936360609965 
812	-2.63222734361801 
813	-2.47802975570134 
814	-2.67849311669868 
815	-3.73771895842717 
816	-3.13121214388562 
817	-0.557883529900699 
818	-1.43468554503302 
819	-2.21736310555318 
820	-2.11054456375714 
821	-1.99443082511178 
822	-2.40063237561225 
823	-2.17465235515547 
824	-0.717965980100587 
825	-1.61653291877544 
826	-2.36749009601811 
827	-2.01785346945297 
828	-2.01052104290009 
829	-3.281820232803 
830	-4.41834343897607 
831	-3.36802595157604 
832	-3.16498013532433 
833	-3.22690066691631 
834	-2.9826997010835 
835	-3.23571339824827 
836	-3.25424464308101 
837	-2.91764506851264 
838	-2.58498934512031 
839	-2.27609316806319 
840	-2.07659674202604 
841	-1.86789646788403 
842	-0.369251304869819 
843	 0.168755160749137 
844	-1.00528080433613 
845	-2.37936931584965 
846	-1.80049294925583 
847	-0.755544465818455 
848	-1.9828682090223 
849	-2.74145924577164 
850	-2.64413396735856 
851	-2.02047635556164 
852	-2.31993976350902 
853	-1.68202848269724 
854	-0.786106384625133 
855	-2.09921523231816 
856	-3.07405624297506 
857	-3.22450963229024 
858	-2.76792207636375 
859	-2.65321298470339 
860	-3.0443310514723 
861	-3.53406814442509 
862	-2.99141007309556 
863	-2.2209093296118 
864	-2.01292667001355 
865	-2.77865846566513 
866	-2.21531380405714 
867	-1.37387622366281 
868	-1.25439685045355 
869	-2.3712339316039 
870	-2.85104564720551 
871	-2.78762134744234 
872	-3.1860423794638 
873	-2.58878665595444 
874	-1.27092067990777 
875	-9.60737778090696E-02 
876	-0.876138728020978 
877	-1.92873078965371 
878	-2.16186823130052 
879	-1.02420149321117 
880	-1.51758925061185 
881	-2.84816160403748 
882	-3.39510859667451 
883	-1.9125825881763 
884	-1.79816349640463 
885	-3.47220494221779 
886	-3.7650822696972 
887	-4.18966170118514 
888	-4.60071566480554 
889	-4.39396560418202 
890	-2.71892016375618 
891	-2.53535040296953 
892	-3.7766683478349 
893	-0.943668619433988 
894	-0.886598715891255 
895	-2.80064753921515 
896	-3.17142567580052 
897	-2.42851987588485 
898	-1.95293076435132 
899	-2.31041177762214 
900	-2.13612478104829 
901	-2.78417526518993 
902	-3.75580846522418 
903	-3.65159811616059 
904	-1.47448156067624 
905	-0.508905432825342 
906	-2.06046000938592 
907	-1.33182631666733 
908	-1.36483814039749 
909	-2.47559324400665 
910	-3.44516203296732 
911	-3.72977888539523 
912	-3.90819374826026 
913	-4.00444001347929 
914	-1.67056780640769 
915	-0.273611607907598 
916	-0.525072722544477 
917	-1.32124144176804 
918	-2.91984380046578 
919	-4.02123790042566 
920	-3.80803274409164 
921	-3.607544180239 
922	-2.15794540161207 
923	-0.74468748741664 
924	-2.25543965740837 
925	-2.49600109394659 
926	-2.64912171853694 
927	-3.61308405766316 
928	-2.01096951159887 
929	-0.919167032300099 
930	-1.47676307004029 
931	-3.18642476150019 
932	-3.1330010763207 
933	-2.61921229099516 
934	-2.89388136192499 
935	-2.3246089391121 
936	-1.89257831826143 
937	-2.07422387741072 
938	-2.89859010867941 
939	-3.2068370584068 
940	-2.63412942485217 
941	-1.60205190951639 
942	-2.24076430202493 
943	-2.82139686975195 
944	-3.10644092791431 
945	-3.68000156406951 
946	-2.83989643759068 
947	-2.08191321331903 
948	-2.18220878502098 
949	-0.558919098859156 
950	-1.19689525790293 
951	-2.88406797871053 
952	-2.08264655987294 
953	-3.14974546895205 
954	-3.5798626065891 
955	-2.12162908336485 
956	-1.94566549727523 
957	-1.76057519837469 
958	-1.51176843617739 
959	-1.60012107493682 
960	-2.45585728776046 
961	-2.94491272481622 
962	-2.41951518818998 
963	-1.13804461660799 
964	-0.699782871923483 
965	-1.12292246547062 
966	-0.819865621304043 
967	-2.99194527846043 
968	-6.22272730535942 
969	-5.88965876278826 
970	-2.27588190223278 
971	-0.730871867588985 
972	 1.97041314971438 
973	 3.50768791445666 
974	 3.91469634026271 
975	 4.38512129644003 
976	 3.64499769214612 
977	 7.3949850110924 
978	 6.00703658523667 
979	 2.30785814163251 
980	 2.29398850336126 
981	-2.10071664646854 
982	-1.5554358379642 
983	 2.36782754692989 
984	 3.45733970985606 
985	 5.31772567552396 
986	 5.46631172142504 
987	 3.06903256557057 
988	 2.53700090112577 
989	 2.29252452787891 
990	 1.26677045173332 
991	-0.285845943467159 
992	 3.96136155866322E-02 
993	 0.763050654077211 
994	 1.57195924378846 
995	 4.07229108827092 
996	 3.88800149618091 
997	 4.01971933530925 
998	 3.03475402984699 
999	-0.369986228077233 
1000	-1.30137123170005 
1001	-2.29938387483617 
1002	-1.11779157535229 
1003	 0.261501468609719 
1004	-1.29712380986571 
1005	-0.813101391048506 
1006	-0.715719095092307 
1007	-1.5205920616276 
1008	-2.22718108231693 
1009	 0.238148003784259 
1010	 3.45767202692061E-02 
1011	-2.62380915281062 
1012	-1.0616593000168 
1013	 1.25610511251344 
1014	 0.613773621266829 
1015	 1.52907676233952 
1016	 3.59581856615019 
1017	 4.73508590112921 
1018	 6.9080359066818 
1019	 6.99596234267264 
1020	 4.00224339923619 
1021	-0.474782527559129 
1022	-4.03994198459131 
1023	-4.56977437223175 
1024	-2.76780052170987 
1025	 0.280464859447741 
1026	 5.59856654703919 
1027	 7.66285535409345 
1028	 6.53601062153068 
1029	 6.6947253628042 
1030	 4.05452350670111 
1031	 3.91995947143398 
1032	 4.75703066614766 
1033	 3.60239541939926 
1034	 2.03936280884377 
1035	-0.740478414778106 
1036	-3.40734714289281 
1037	-6.13917347653066 
1038	-6.82218151978126 
1039	-4.8382881384721 
1040	-3.95565100332643 
1041	-2.13319408856778 
1042	-1.40638645191478 
1043	-0.683982710157627 
1044	-2.34076800487265 
1045	-3.99393106719358 
1046	-3.2697601172315 
1047	-4.30960542526832 
1048	-4.85745935084362 
1049	-3.80598341783138 
1050	-3.64481911080663 
1051	-2.6265120334529 
1052	-2.60402804873152 
1053	-5.67058043082336 
1054	-7.31910169212014 
1055	-7.46146546532129 
1056	-6.91005312358675 
1057	-5.47243656881443 
1058	-0.955666814897911 
1059	 0.553629102294745 
1060	 0.770019684743813 
1061	 2.24398692974923 
1062	 3.19336658811949 
1063	 4.91405725909937 
1064	 7.93557662708253 
1065	 8.70971149035605 
1066	 9.21361692451332 
1067	 9.18353205844141 
1068	 8.5334701627833 
1069	 8.11902231388874 
1070	 6.32457974248005 
1071	 4.12036546560761 
1072	 0.478312159085782 
1073	-3.02512303790598 
1074	-3.87645089003408 
1075	-2.57244189638397 
1076	-2.28540670234105 
1077	-0.102073467381808 
1078	 0.746007152108303 
1079	-1.13197460062658 
1080	-0.850024292706092 
1081	 2.7104208500801 
1082	 3.54613772443555 
1083	 3.32665055577865 
1084	 3.3823667170293 
1085	 3.81237559538995 
1086	 1.08549357869369 
1087	-0.338710899504597 
1088	 2.0945192415751 
1089	 0.468008248718443 
1090	-0.273645597077982 
1091	-1.40235710262207 
1092	-4.96114581992302 
1093	-4.86681800511449 
1094	-2.06410978554956 
1095	-0.670643366657043 
1096	 2.97141421034504 
1097	 4.22346128111107 
1098	 2.81941229444088 
1099	 2.62028033939309 
1100	 3.39685573490764 
1101	 3.0654658213002 
1102	 0.532072519353454 
1103	 0.750226756528508 
1104	 3.35963597963954 
1105	 2.63488282137044 
1106	 2.89398126147238 
1107	 4.58383210952574 
1108	 2.1697632271854 
1109	-0.723768397433632 
1110	-1.28346661744341 
1111	 0.177510675144621 
1112	-0.341355047209411 
1113	 5.35579057874708E-02 
1114	-1.33548351908112 
1115	-5.84171396792738 
1116	-7.21151850772187 
1117	-7.64418637218236 
1118	-8.12309813961808 
1119	-7.62160925681079 
1120	-6.5592161765814 
1121	-5.23945548092672 
1122	-3.93453505582946 
1123	-0.128560445611456 
1124	 1.18029154447006 
1125	 1.2605948647829 
1126	-0.355935589997239 
1127	-0.418866530594511 
1128	-1.34907428783247 
1129	-1.32408934358962 
1130	 0.128625262231094 
1131	 0.431061423845614 
1132	-0.297775239523153 
1133	 0.262756606225116 
1134	 2.07659956738413 
1135	 2.08138815283533 
1136	 1.11107744834781 
1137	 1.42819191254579 
1138	 1.77578113628386 
1139	 1.39262668723694 
1140	 1.64340732057308 
1141	 1.75770555847941 
1142	 0.612958877613899 
1143	-0.134842363822708 
1144	-0.799497470818005 
1145	-0.381231599696007 
1146	 0.160207172672799 
1147	 1.03997790224634 
1148	 2.58539815844122 
1149	 6.61612923033984 
1150	 6.79162388171709 
1151	 5.46432700373404 
1152	 4.34111408943628 
1153	 1.26082105548032 
1154	-0.232446073369965 
1155	-0.803252983610323 
1156	-2.07491442630891 
1157	-3.32245317938715 
1158	-5.16990609482683 
1159	-8.91837833388455 
1160	-9.72180938868778 
1161	-10.0166949419805 
1162	-8.84730431120762 
1163	-3.22032676872668 
1164	-0.932788946481894 
1165	 0.020658755855164 
1166	 1.37323486811225 
1167	 2.71851696206631 
1168	 1.94271295526569 
1169	 0.382524834954933 
1170	-0.980235696851399 
1171	-3.24618693425825 
1172	-8.66123353197284 
1173	-9.84158762303489 
1174	-9.43130452322472 
1175	-8.49788371053035 
1176	-5.39421934611237 
1177	-4.04349879103106 
1178	-2.40736555034404 
1179	-1.50966740358405 
1180	-1.75261343199746 
1181	-0.775198908489625 
1182	 0.787521379723166 
1183	 1.61487004766543 
1184	 3.11425032855846 
1185	 3.27098879940126 
1186	 1.25024752582618 
1187	 0.807473593539373 
1188	 1.24531438571646 
1189	 0.921279007426995 
1190	 1.04686515615599 
1191	 1.13915072276399 
1192	-0.487817261338072 
1193	-3.76052198038195 
1194	-5.3419046411107 
1195	-5.60327501200714 
1196	-4.58613524423631 
1197	-1.17746872616655 
1198	 0.93729537292354 
1199	 4.64619125076297 
1200	 5.35663465826559 
1201	 3.70522690011575 
1202	 3.94505533977451 
1203	 3.4707846789733 
1204	 3.32361041918887 
1205	 5.510574028297 
1206	 5.16727759435713 
1207	 1.80191874816635 
1208	 0.708430030123896 
1209	-0.351077461406533 
1210	-0.655625902372141 
1211	 0.67156735883962 
1212	 1.54473879650362 
1213	 2.60612357557179 
1214	 3.00172438994466 
1215	 1.42363375092013 
1216	 2.05119413854007 
1217	 3.43722019422823 
1218	 4.31137923020575 
1219	 4.37293676109404 
1220	 4.71430983449466 
1221	 3.26528614185181 
1222	-2.74882907781363 
1223	-3.82407518713653 
1224	-3.01286117088312 
1225	-2.19870207622215 
1226	 0.833104026257721 
1227	 3.02051956060887 
1228	 6.15669901312493 
1229	 6.99795067182759 
1230	 7.77749555242858 
1231	 7.34409353149946 
1232	 3.73882078940082 
1233	 1.12464157014482 
1234	-3.17321650622859 
1235	-5.10294979930708 
1236	-6.90704836921417 
1237	-5.09972041566054 
1238	-1.64791182640956 
1239	 2.08229407574519 
1240	 5.95528582401385 
1241	 6.35858174737749 
1242	 2.94369081797724 
1243	 0.984599832888968 
1244	-1.52653444796245 
1245	-3.94991916922699 
1246	-2.90949540889514 
1247	-1.43054309772549 
1248	-0.839376199791746 
1249	 1.83206059988785 
1250	 3.09564644764145 
1251	 3.84125284069845 
1252	 3.56858843135347 
1253	 2.2411447022525 
1254	 1.77502970913786 
1255	-0.086403006182249 
1256	-0.192517412197795 
1257	 1.61672047221068 
1258	 2.14584942341838 
1259	 4.97115891320232 
1260	 5.04671750086277 
1261	 2.37917162999545 
1262	 0.011069976018392 
1263	 0.626069456208992 
1264	 2.30344233971756 
1265	 6.47192967532313 
1266	 8.77931864696031 
1267	 8.43355530127601 
1268	 5.27699029596578 
1269	 2.53410056756638 
1270	 2.03413457182187 
1271	 2.46717232481633 
1272	 3.49961234948342 
1273	 4.78855483685154 
1274	 5.76957373724426 
1275	 6.04721876221779 
1276	 5.31225785667111 
1277	 2.86920451971974 
1278	 0.584733562113837 
1279	-0.509080210105888 
1280	-1.16318720158663 
1281	-1.37868157827155 
1282	-4.48530975836653E-02 
1283	 0.916176030486229 
1284	 2.36721341786632 
1285	 0.882235728836608 
1286	-5.02905415148353 
1287	-5.25566122996672 
1288	-4.5459471531694 
1289	-1.01205179908619 
1290	 2.62805797848887 
1291	 8.81859928571488 
1292	 8.19737464474629 
1293	 4.96005896595452 
1294	 5.50611991831747 
1295	 4.75978188727097 
1296	 4.94677069194596 
1297	 4.71858690426835 
1298	 2.77694326915279 
1299	 0.457091831078448 
1300	-3.34748088951237 
1301	-6.07705376069158 
1302	-5.38722578549851 
1303	-3.79808570734839 
1304	-3.6238766542368 
1305	-2.29205259842958 
1306	-1.94215364273331 
1307	-4.14794577897971 
1308	-4.9431874246375 
1309	-5.07588683680872 
1310	-4.64739511234147 
1311	-1.36183255299498 
1312	 0.387810232365592 
1313	 2.88154317108528 
1314	 3.92950359887566 
1315	 4.44890276665543 
1316	 2.9451447099815 
1317	-0.528034637060732 
1318	-1.3336073443851 
1319	-2.31917282251344 
1320	-4.33628127889903 
1321	-2.52589498106423 
1322	-3.46968163675186 
1323	-4.47828898960783 
1324	-3.82934528331818 
1325	-6.59560180107585 
1326	-5.38032025883656 
1327	-1.74770160189574 
1328	-0.462677613230961 
1329	 2.12796679273936 
1330	 5.26475851467597 
1331	 5.90004298760522 
1332	 3.51992600530919 
1333	 1.58972943005048 
1334	-0.820964838990098 
1335	-3.66748928746023 
1336	-4.13300111176838 
1337	-1.5193611120208 
1338	 1.6786884845352 
1339	 2.95788042928824 
1340	 4.14938706046442 
1341	 2.26643947891263 
1342	-0.244901130166708 
1343	 0.74430840461408 
1344	 0.643150503577657 
1345	 0.434960919970105 
1346	 1.12211030329646 
1347	 0.925803381813469 
1348	-0.801202446915232 
1349	-1.10954343323861 
1350	-0.169057846569293 
1351	-0.489083409958342 
1352	-1.98336638664574 
1353	-2.28420816196382 
1354	-1.91825909449056 
1355	-4.11220294383722 
1356	-3.13528625057092 
1357	-0.61320301759899 
1358	-0.720323320085711 
1359	 1.90991000005642 
1360	 4.24942025019823 
1361	 3.50642924609705 
1362	 3.70533940677288 
1363	 5.54659030015298 
1364	 5.15872006900038 
1365	 4.30206643722501 
1366	 4.42079967546867 
1367	 3.81192730418323 
1368	 3.82473621429301 
1369	 2.33313276957484 
1370	 1.06339542941085 
1371	-1.55041759438179 
1372	-7.35429127190714 
1373	-7.56205030471269 
1374	-6.19995829023919 
1375	-6.05911713161715 
1376	-5.1543211854141 
1377	-5.63062077844533 
1378	-5.90601810510481 
1379	-4.74394981696391 
1380	-0.782421532631478 
1381	 1.50201951096192 
1382	 2.66164945454232 
1383	 2.4488963937891 
1384	-0.213535145150784 
1385	 1.33637352203651 
1386	 2.32949626568548 
1387	 1.72631413566814 
1388	 3.30925139322203 
1389	 3.29198161868428 
1390	 3.08558778598993 
1391	 2.79379574239175 
1392	 2.70985735874147 
1393	 1.88725587952761 
1394	 1.45419415183582 
1395	 0.737825965141426 
1396	 2.68348003513553 
1397	 3.72170465471657 
1398	 4.8388782639224 
1399	 5.91339980645509 
1400	 5.58282001210887 
1401	 6.08844963781534 
1402	 5.8325849331505 
1403	 6.52277277810971 
1404	 7.90559697450857 
1405	 7.77638585261266 
1406	 8.3499161778248 
1407	 5.9298697149286 
1408	 3.39599866020756 
1409	 2.43276099169216 
1410	-0.407504655116002 
1411	-0.136556365572485 
1412	 1.37508704729033 
1413	 0.590202836931196 
1414	-2.12769155947104 
1415	-3.37882044857933 
1416	-4.12527914745449 
1417	-6.51226957481943 
1418	-5.60949285690958 
1419	-3.7233062993669 
1420	-3.07733913929118 
1421	-0.733991331834629 
1422	 0.981063000985248 
1423	-0.263873028998 
1424	-2.940962348393 
1425	-5.83917549916991 
1426	-7.53277459721214 
1427	-9.21188067902271 
1428	-7.96315148337713 
1429	-4.60911336574417 
1430	-2.24905719270654 
1431	 2.15572456396903 
1432	 3.94490666517129 
1433	 2.10799938292887 
1434	 0.313045416210511 
1435	-3.00286230349188 
1436	-3.7692679112865 
1437	-3.13775877657139 
1438	-3.50758972174812 
1439	-1.54559728900535 
1440	-3.5995120144632 
1441	-5.48570310710531 
1442	-5.71089369874687 
1443	-5.56781240100368 
1444	-1.186842021892 
1445	 0.394856505449659 
1446	 1.21369403242072 
1447	 3.06099766486761 
1448	 3.66476492246459 
1449	 2.95324119813446 
1450	 3.77830487609325 
1451	 2.53331184338507 
1452	-2.20898385880018 
1453	-3.68664074516067 
1454	-1.56967481302863 
1455	 0.1519956616873 
1456	 3.52637759845802 
1457	 6.30083604898349 
1458	 5.68732162470409 
1459	 3.22719133959824 
1460	 1.38921284498719 
1461	-2.48105780635288 
1462	-6.8812159749645 
1463	-7.14764657233337 
1464	-9.61503685206961 
1465	-11.3289986653752 
1466	-8.92305366558712 
1467	-9.85172959460245 
1468	-8.76083296797255 
1469	-5.89183720628298 
1470	-6.84295113036271 
1471	-6.32040358936435 
1472	-3.04880917894763 
1473	-0.671037523115516 
1474	 1.01555378001922 
1475	 1.32258369960339 
1476	-0.541483617973334 
1477	-0.914130832073128 
1478	-1.65166418306852 
1479	 1.44984283729343 
1480	 9.14773591756263 
1481	 10.2980717484025 
1482	 10.3036191764886 
1483	 11.0563697149876 
1484	 6.5267279085125 
1485	 3.96203397629898 
1486	 2.98732733167322 
1487	 1.64575092364381 
1488	-1.77826632751824 
1489	-6.20000546420348 
1490	-4.66010524807059 
1491	-4.81080472867958 
1492	-3.68646668821939 
1493	 0.681655699025951 
1494	 1.22326751323925 
1495	 2.18066589998023 
1496	 2.45079961140697 
1497	 3.24199855165813 
1498	 3.64218501081259 
1499	 2.94802229868275 
1500	 6.3538542845195 
1501	 6.2966599947481 
1502	 4.21127912572455 
1503	 5.02206674738843 
1504	 4.09904337974947 
1505	 4.34565567399123 
1506	 6.7720807679401 
1507	 7.12002899221987 
1508	 3.34827112311097 
1509	 0.104355458774163 
1510	-1.85139332803047 
1511	-3.56537859217106 
1512	 0.265152732844773 
1513	 2.57122556600333 
1514	 1.67078406801356 
1515	 2.87268208625853 
1516	 2.65336005125362 
1517	 3.03112099075637 
1518	 4.6231666306178 
1519	 5.98565190661337 
1520	 6.30461243591001 
1521	 4.95207604696949 
1522	 6.40931828767643 
1523	 7.28908118122926 
1524	 7.15534649923222 
1525	 7.77039334306597 
1526	 2.5927708914221 
1527	-0.929414009623991 
1528	-2.48587179986827 
1529	-4.01571199416731 
1530	-0.367759804573796 
1531	 1.16536878431704 
1532	 1.23879556092815 
1533	 2.41087028915921 
1534	 2.09941037488565 
1535	 2.18845714237191 
1536	 2.94035855261788 
1537	 1.67144194889599 
1538	-0.877441377387861 
1539	-2.77749807246078 
1540	-5.71522330638789 
1541	-8.50554208038812 
1542	-8.45881309332209 
1543	-7.18183375576862 
1544	-6.00657041729604 
1545	-4.48231165481998 
1546	-4.00988690424413 
1547	-5.61316352950397 
1548	-4.90460016823063 
1549	-1.37676708845941 
1550	 0.644406377644618 
1551	 3.56673408589095 
1552	 6.4929136817732 
1553	 6.08337595319675 
1554	 4.65796605770095 
1555	 3.75422607145768 
1556	-5.78250356793037E-02 
1557	-3.47578522253144 
1558	-1.70731868650996 
1559	-1.46045412463359 
1560	-0.600542709002827 
1561	 0.943170798618328 
1562	-0.96150257508171 
1563	-1.44515769509271 
1564	-0.730316334228049 
1565	-0.70152538651459 
1566	 0.444876860639761 
1567	 1.26663402792319 
1568	-1.40132072311209 
1569	-2.91858136650235 
1570	-2.84340271347893 
1571	-3.14153600044366 
1572	-1.75301416738311 
1573	-0.579368516749835 
1574	 1.49638410680285 
1575	 2.54019799961565 
1576	 2.49757149154794 
1577	 3.49847316580812 
1578	 2.76634453306839 
1579	 1.52316909939221 
1580	 0.714473715580956 
1581	 2.35871280676841 
1582	 3.03443865875937 
1583	 1.86526261703051 
1584	 2.75342010819542 
1585	 0.803151934440839 
1586	-0.310820934238117 
1587	 1.89316450755888 
1588	 5.60039067387247 
1589	 7.68871251354765 
1590	 6.39431381672057 
1591	 4.85749321923983 
1592	-4.90375763708489E-02 
1593	-3.16049018902679 
1594	-1.66449421971897 
1595	 0.860910548798193 
1596	 2.70648988606305 
1597	 3.34839998339961 
1598	 4.66464592042343 
1599	 2.72724725503445 
1600	 0.688010075698471 
1601	 3.95318320478659 
1602	 3.88010336093005 
1603	 1.70141951973967 
1604	 2.64130603654613 
1605	-0.168076808698583 
1606	-0.658239880319732 
1607	 0.433310422883688 
1608	-3.95243691385749 
1609	-5.43223707230477 
1610	-5.50036967699372 
1611	-6.93371331593187 
1612	-7.04285824548291 
1613	-8.13394793650244 
1614	-10.8309685982745 
1615	-10.7790024415362 
1616	-6.97158436337501 
1617	-4.50428931150187 
1618	-2.84907169706451 
1619	-2.82262463074495 
1620	-5.10306027482085 
1621	-5.84710497637794 
1622	-4.37659691004372 
1623	-2.18513817922539 
1624	 0.355853023060673 
1625	 3.90699074044903 
1626	 4.70451352593365 
1627	 4.68669207001481 
1628	 6.74717932179931 
1629	 5.29747341220208 
1630	 1.08781846335363 
1631	-2.5788204064775 
1632	-7.66821795898857 
1633	-10.5811118047546 
1634	-7.62748120625182 
1635	-6.4929995745925 
1636	-4.65858169498878 
1637	-3.06240152523951 
1638	-2.39188747336705 
1639	-0.972510741355733 
1640	 2.09749775752191 
1641	 3.30995489415256 
1642	 3.36137599584545 
1643	 4.03424256227508 
1644	 3.70115999998986 
1645	 3.88676264995072 
1646	 6.02179916460476 
1647	 5.32926476835292 
1648	 2.7578789031032 
1649	 1.29848670223738E-02 
1650	-6.18408026570428 
1651	-7.22928968370725 
1652	-4.85961543568305 
1653	-4.23246992932848 
1654	-1.85840297121571 
1655	-0.473587461689054 
1656	 0.411082174253012 
1657	-0.440138730496627 
1658	-1.95513282828268 
1659	-2.97398360100232 
1660	-7.78373182987753 
1661	-7.79703022299701 
1662	-3.62886919936934 
1663	-1.40089212096279 
1664	 2.53192901069093 
1665	 4.72549164331116 
1666	 5.69164821202535 
1667	 6.33972575905417 
1668	 6.49542740416684 
1669	 6.20422146133832 
1670	 4.99076558175779 
1671	 4.15477264483407 
1672	 2.40761380075091 
1673	 2.68530778032413 
1674	 5.35809602469424 
1675	 3.6591598213912 
1676	-9.43112881163022E-02 
1677	 0.184145671356251 
1678	-1.12542578333192 
1679	 0.26428223149597 
1680	 7.55765033616833 
1681	 8.36980144080057 
1682	 5.94135414533769 
1683	 4.18015445968256 
1684	 1.77450040092693 
1685	 0.104183879501071 
1686	 0.759585875850243 
1687	 1.80911282902621 
1688	 2.04172419095867 
1689	 0.997957917317032 
1690	 1.04669500359451 
1691	 2.83026908141147 
1692	 2.18859084116782 
1693	-0.330280063224709 
1694	-0.865092950089112 
1695	-1.97830358094463 
1696	-2.97323610046705 
1697	-2.93250180814001 
1698	-1.63541695892708 
1699	-0.662507908420599 
1700	 1.23311407063115 
1701	 7.65410963552209 
1702	 9.39962765262243 
1703	 8.3336528109125 
1704	 7.54355549046468 
1705	 3.43302599099657 
1706	 2.2795631237488 
1707	 3.60116961612781 
1708	 2.77029584269829 
1709	 1.12282002406482 
1710	 1.141521891655 
1711	 1.57337899983131 
1712	 0.509630589809351 
1713	 0.80445650720811 
1714	-1.10650899250866 
1715	-7.28002492589934 
1716	-8.51429128304982 
1717	-8.05161075253207 
1718	-7.08877283628753 
1719	-3.00019835621851 
1720	-2.40674213733606 
1721	-2.4871887783064 
1722	-3.54490008788289 
1723	-7.35299165833672 
1724	-7.29434685532222 
1725	-6.43321132302635 
1726	-3.55527311882215 
1727	 0.523839207940664 
1728	 0.127918819824402 
1729	-2.28864051336371 
1730	-5.78429842797845 
1731	-6.73058468499836 
1732	-1.059273216318 
1733	 1.55099144761921 
1734	 5.05588939572107 
1735	 7.61570373231919 
1736	 8.43071173638661 
1737	 8.72897353658581 
1738	 9.24189091297034 
1739	 8.46274528381901 
1740	 5.01276565727797 
1741	 3.3048277427832 
1742	 1.83893108878428 
1743	 0.849495753641388 
1744	 0.162731548879658 
1745	 5.01359628967563E-03 
1746	 1.34540770444648 
1747	 1.62705649511507 
1748	 2.57337209906823 
1749	 1.25657176304954 
1750	-3.36529813044362 
1751	-4.1883068587007 
1752	-4.95612075385968 
1753	-3.29757498235033 
1754	 2.6605989822547 
1755	 5.37745950216609 
1756	-35.0726808386073 
1757	-36.9117923601878 
1758	-14.5404221587635 
1759	-5.76053164205763 
1760	 2.94619400040731 
1761	 16.582896418746 
1762	 30.4844010015993 
1763	 30.4043134548774 
1764	 28.717063368109 
1765	 18.6100609051645 
1766	 21.3358798055506 
1767	 28.6742635844397 
1768	 27.1626429965891 
1769	 29.5030304573753 
1770	 28.9142401142291 
1771	 22.0209642900906 
1772	 18.6095379402353 
1773	 11.9028286596551 
1774	 7.41651756805032 
1775	 3.91590456220728 
1776	-7.60132768960508 
1777	-13.1138544023118 
1778	-14.2548918936167 
1779	-3.34968407679978 
1780	-2.20435828300078 
1781	-9.79112476119677 
1782	-7.62490325793682 
1783	-9.92505227340285 
1784	-13.9823880933503 
1785	-20.3958296266123 
1786	-17.5937435166391 
1787	-13.5674563646238 
1788	-5.83725704041728 
1789	 5.95635228022767 
1790	 6.30846407373661 
1791	-0.600730643871596 
1792	-1.87721878752147 
1793	-9.56348710939579 
1794	-10.3921739949119 
1795	-0.131426468009081 
1796	 0.780393180448282 
1797	-2.86930829916453 
1798	 11.1394016911412 
1799	 0.259312121726097 
1800	-2.55581539413019 
1801	 14.7820012805786 
1802	 15.4697148073898 
1803	 14.0975069822331 
1804	 23.5892797531008 
1805	 20.576367790741 
1806	-4.72127977197522 
1807	-17.9302977635476 
1808	-19.079898638852 
1809	-11.9754039724204 
1810	 3.35242132801467 
1811	 4.33229933348775 
1812	 12.2263179917027 
1813	 23.8802583332087 
1814	 29.7861863182551 
1815	 35.9965735409528 
1816	 40.1386132818878 
1817	 42.5999887239256 
1818	 38.035564632241 
1819	 28.7821326557208 
1820	 25.4712527723011 
1821	 20.1195998837964 
1822	 8.45736569299579 
1823	 4.11703340561264 
1824	 9.61616681209493 
1825	 5.32067465791492 
1826	-11.406663210365 
1827	-11.8441305355433 
1828	-6.65041156729964 
1829	-0.589062701454338 
1830	 3.54952453944564 
1831	 25.7570713345013 
1832	 23.4528856869272 
1833	-4.52600215190293 
1834	-10.2029486022192 
1835	-18.3239547335908 
1836	-16.9699732433125 
1837	 5.43832785363469 
1838	 16.5627200722537 
1839	 35.5950524498295 
1840	 37.9075752911848 
1841	 35.0444310285315 
1842	 25.0114820132884 
1843	 10.8391527711093 
1844	-29.3875915473099 
1845	-37.6107367249221 
1846	-34.3967697370199 
1847	-31.452564551648 
1848	-9.05890341003492 
1849	 9.94109611149158 
1850	 15.3581831775506 
1851	 14.0508719659972 
1852	 21.201373676839 
1853	 33.9694859189558 
1854	 39.5472056851066 
1855	 49.5478848707875 
1856	 51.3533340646836 
1857	 42.9651542613654 
1858	 32.3376860830528 
1859	 34.3830874703151 
1860	 26.1623846968447 
1861	 28.1521732186486 
1862	 29.0495174202222 
1863	 30.1436177536266 
1864	 34.382055496364 
1865	 35.5346215058316 
1866	 36.3031122569924 
1867	 34.8288358900586 
1868	 24.8144476688315 
1869	 25.756996214661 
1870	 30.9968176263439 
1871	 31.9675061518802 
1872	 41.6581280414616 
1873	 44.0168940118456 
1874	 42.82892186634 
1875	 39.6967034096684 
1876	 35.9433863175184 
1877	 31.6358138236674 
1878	 22.9398698037309 
1879	 14.867912901447 
1880	 13.8382321875481 
1881	 10.992967204636 
1882	 8.11933258456332 
1883	 7.53740693389578 
1884	 10.6770177184577 
1885	 2.56838614598397 
1886	-0.701421561954907 
1887	-4.21074681609571 
1888	-9.94911744439824 
1889	-26.8595583719534 
1890	-25.6551891003616 
1891	-23.2630194687416 
1892	-12.3275514057229 
1893	 9.82494430759427 
1894	 21.9123537890933 
1895	 30.7908536074949 
1896	 21.3673333759993 
1897	 11.1784009585596 
1898	-15.2793539420743 
1899	-24.432021516669 
1900	-36.8059221229039 
1901	-28.7501022249989 
1902	-11.5043375233459 
1903	-1.94484674624499 
1904	 15.557197242015 
1905	 21.6479791843124 
1906	 20.3983946019247 
1907	 28.4255890765731 
1908	 30.4585662490528 
1909	 29.2541865567032 
1910	 29.6266149190502 
1911	 28.0753377845731 
1912	 24.6588803989291 
1913	 22.9400197083058 
1914	 12.2348735621513 
1915	 7.33506728085199 
1916	 6.54432555887116 
1917	 8.76682908849718 
1918	 15.8317231661671 
1919	 16.5575496445058 
1920	 17.4775060638593 
1921	 13.2905868105429 
1922	-0.193681067047524 
1923	-6.11764237691095 
1924	-16.9193623451297 
1925	-17.1864023377173 
1926	-6.54247982769491 
1927	 1.749602534044 
1928	 17.4643928023658 
1929	 20.776705075042 
1930	 21.2477323791762 
1931	 11.4327888602261 
1932	 14.1650724869056 
1933	 20.9768993817632 
1934	 22.954449239777 
1935	 28.1098156104439 
1936	 30.1071936950147 
1937	 20.0124151068254 
1938	 20.396014405028 
1939	 28.370196196664 
1940	 41.5372381267672 
1941	 41.6381958060906 
1942	 36.5928493023353 
1943	 39.1595461719119 
1944	 39.0315310245809 
1945	 37.1433729699158 
1946	 43.6068528486294 
1947	 42.6067973547857 
1948	 26.9291279017063 
1949	 20.7666616011668 
1950	 24.8801697731444 
1951	 20.8654905971026 
1952	 7.30419387157519 
1953	 8.09485359874889 
1954	 0.272568511063622 
1955	-15.4300182592759 
1956	-21.5584022557189 
1957	-26.5171003724657 
1958	-24.75183866491 
1959	-15.7593247311763 
1960	-8.07986048425072 
1961	 5.82382645701305 
1962	 16.6292139015719 
1963	 30.2632231103261 
1964	 37.5992761976513 
1965	 42.3299523976522 
1966	 46.0429145385548 
1967	 42.5458896411724 
1968	 28.2599407951914 
1969	 22.8278729645935 
1970	 15.5434245637112 
1971	 12.0026561531547 
1972	 11.3980128392607 
1973	 14.2772360197585 
1974	 23.0556825613179 
1975	 25.8636109763632 
1976	 31.7363292594399 
1977	 33.5458000806419 
1978	 34.0996029092955 
1979	 24.7771687296107 
1980	 16.7609215218959 
1981	 3.27344268960706 
1982	 1.58705576397252 
1983	 3.6227446545845 
1984	 2.86342828538687 
1985	 8.73220836536077 
1986	 10.7855014523083 
1987	 3.30534665541453 
1988	 5.36077085815105 
1989	 13.247881376493 
1990	 22.1368167735691 
1991	 39.5367247659378 
1992	 51.1883281674375 
1993	 54.0435322969608 
1994	 58.3871374102373 
1995	 49.5411709012722 
1996	 20.4878537031048 
1997	 10.760128621024 
1998	-2.3437908205826 
1999	-1.97088662297203 
2000	 17.6447989060224 
2001	 22.0398698799369 
2002	 31.1666942191007 
2003	 31.0230411121839 
2004	 17.1092387906516 
2005	 7.70331452630611 
2006	 8.82186660346485 
2007	 0.800320242186872 
2008	 2.76039395426978 
2009	 13.9440625542923 
2010	 14.7463870453122 
2011	 9.90513502463537 
2012	 8.07651565518025 
2013	 2.75236366898653 
2014	 2.33486600782348 
2015	 5.63841934612382 
2016	 8.62857781746445 
2017	 16.1565493611 
2018	 16.3127809355772 
2019	 12.7121674789558 
2020	 8.88238692891512 
2021	 5.1508712009927 
2022	 3.6488381624475 
2023	 4.06720681886826 
2024	 15.0401111342859 
2025	 19.5206680559678 
2026	 26.2086397831886 
2027	 26.3354045015547 
2028	 20.9535188670431 
2029	 15.3048492117102 
2030	 6.19209110996059 
2031	-3.33419498570724 
2032	-17.4434235243895 
2033	-25.8888623652714 
2034	-24.6573848843707 
2035	-20.0227952588463 
2036	-7.58858224723615 
2037	 11.9696248151485 
2038	 24.352844188369 
2039	 32.7795495559812 
2040	 37.4801047652454 
2041	 31.9389056804862 
2042	 26.4899151190622 
2043	 5.0924239988594 
2044	 1.73708035101439 
2045	 11.3426895500511 
2046	 16.4006261199554 
2047	 32.7057180564495 
2048	 40.058416262339 
2049	 46.1030908934644 
2050	 34.6585679823033 
2051	 15.7939939816898 
2052	 8.44545282520976E-02 
2053	-15.257020546188 
2054	-30.7346550875015 
2055	-17.0565761009361 
2056	-1.88864867059328 
2057	 4.39258331361876 
2058	 18.0385870485522 
2059	 22.4730449582135 
2060	 14.4938253533919 
2061	 13.4058117994024 
2062	 12.5806896383573 
2063	 8.63216743643485 
2064	 1.4373796968974 
2065	-2.31938727655496 
2066	-0.824217360731604 
2067	 7.31091780775846 
2068	 11.8414643542982 
2069	 11.7741923445226 
2070	 8.27099682433897 
2071	-2.49139873368774 
2072	 0.650722865447486 
2073	 8.88835345480485 
2074	 13.2935818917954 
2075	 23.7810266764515 
2076	 27.1363636639625 
2077	 21.3302567398179 
2078	 25.1303432237439 
2079	 31.1848047223004 
2080	 34.445190609278 
2081	 42.2187623391712 
2082	 47.3327718353512 
2083	 43.4768886778371 
2084	 47.5567373307471 
2085	 46.6005650175769 
2086	 45.6143242460794 
2087	 47.8158118821568 
2088	 35.3332895467619 
2089	 24.7866852878369 
2090	 15.5676863120645 
2091	 6.50389485596703 
2092	-2.55050862764849 
2093	-10.6894137154317 
2094	-18.6425976229945 
2095	-23.2380073566623 
2096	-30.3694587413618 
2097	-24.7006100977219 
2098	-9.28793205243776 
2099	 5.67495964293364 
2100	 16.6012357659521 
2101	 19.6282279708373 
2102	 11.7206004082393 
2103	 4.71918834079975 
2104	 11.2753179529773 
2105	 13.2360547994572 
2106	 22.7369997492955 
2107	 35.5005790001975 
2108	 39.4363663683133 
2109	 46.7998247425581 
2110	 44.5654674221422 
2111	 40.2490214172729 
2112	 30.8486809078699 
2113	 15.6620107012388 
2114	 8.33549424815827 
2115	 4.61023683002002 
2116	-4.24506565890571 
2117	-12.0996653934755 
2118	-13.7081952143819 
2119	-16.4834953706168 
2120	-13.2019402010581 
2121	-9.51151990105635 
2122	-8.70360395627385 
2123	-13.7231096880154 
2124	-18.2638104082144 
2125	-17.1015242676634 
2126	-22.511172938062 
2127	-28.1630096344996 
2128	-27.6977403653324 
2129	-21.4815100353473 
2130	-13.3146043116447 
2131	-1.83362246627072 
2132	-2.23575292743322 
2133	-13.6396272667363 
2134	-17.2572529014068 
2135	-18.8049481897012 
2136	-22.6791294925595 
2137	-16.9383652633715 
2138	 9.28430427969236E-02 
2139	 8.40181157264837 
2140	 16.9926967835641 
2141	 27.4418137434047 
2142	 29.4444026717554 
2143	 31.2881465750964 
2144	 23.0324777673868 
2145	 8.63278782277488 
2146	-1.96066368274991 
2147	-16.5721132665654 
2148	-14.6723548770551 
2149	-6.9552329618228 
2150	-1.26500902449195 
2151	 6.29313776940283 
2152	 7.64549942195688 
2153	 12.4868730043581 
2154	 17.7041900429207 
2155	 13.5375163323152 
2156	 9.81243407898461 
2157	 5.67510511925585 
2158	-0.426085271867497 
2159	-10.8961376037543 
2160	-13.5395952503405 
2161	-16.0875826892434 
2162	-16.2994339675675 
2163	-11.4654540829052 
2164	-4.10252184385326 
2165	-11.6621911229277 
2166	-18.5964530981191 
2167	-20.6808319426283 
2168	-32.2566449616773 
2169	-20.2053106289043 
2170	-8.62867755646333E-02 
2171	 4.20091352959562 
2172	 16.9032015744033 
2173	 14.9516556969888 
2174	-1.75714245899691 
2175	-12.4591654169182 
2176	-21.4397304763379 
2177	-27.0644101012644 
2178	-26.1026467049242 
2179	-17.5977396944051 
2180	-16.1038516519664 
2181	-14.8367220468553 
2182	-11.7653888506479 
2183	-7.95449309075686 
2184	-3.28589010879432 
2185	 2.91601907438861 
2186	 15.6242151291924 
2187	 20.1066396689044 
2188	 22.9757908674166 
2189	 16.3835363334604 
2190	 7.81379988298371 
2191	-5.62931532292517 
2192	-11.5548986955354 
2193	-1.19170868792787 
2194	 8.83071486305196 
2195	 19.3441996319056 
2196	 26.8057853322393 
2197	 12.1641901553715 
2198	 10.7575299596873 
2199	 13.7808366363442 
2200	 6.4763325388548 
2201	 24.9199950425926 
2202	 36.235899778462 
2203	 39.7544974092325 
2204	 54.7599353122895 
2205	 55.5882178396831 
2206	 44.7525731663579 
2207	 30.3608086513927 
2208	 15.0690234133618 
2209	 6.24236450413874 
2210	 1.65545414942637 
2211	 4.47913927935293 
2212	 5.9870440967641 
2213	 13.4282401500496 
2214	 12.5328714596585 
2215	 9.14985689789696 
2216	 8.07114616874363 
2217	-0.942328720123972 
2218	-1.51684238974576 
2219	 5.17542420982606 
2220	 7.97670435888168 
2221	 9.81701177045961 
2222	 17.7611125222352 
2223	 25.6273958432117 
2224	 32.8122382047167 
2225	 36.4420674859207 
2226	 35.431942792021 
2227	 26.0368251125502 
2228	 8.46168950085884 
2229	-7.22777609254137 
2230	-17.9423400606075 
2231	-23.5866629053806 
2232	-14.3957091502383 
2233	-0.549648669969784 
2234	 13.2334017594546 
2235	 29.1413525695444 
2236	 33.06341608617 
2237	 36.4939729511534 
2238	 41.8529365498332 
2239	 34.6322039985816 
2240	 29.6435581648124 
2241	 25.525781280916 
2242	 9.99886635849018 
2243	 3.66622532976018 
2244	 4.83712698588155 
2245	-0.247124277111159 
2246	-2.45409078397766 
2247	-6.05898959411198 
2248	-19.7307867066962 
2249	-22.934664092153 
2250	-24.2112243396086 
2251	-18.104274770617 
2252	 2.30217353607103 
2253	 14.6373364056346 
2254	 33.341274554851 
2255	 39.1320546353453 
2256	 37.8482888084532 
2257	 25.1073614618711 
2258	 12.7368633699525 
2259	 8.3881867995422 
2260	 8.95975122232567 
2261	 19.9727222846795 
2262	 26.184018035189 
2263	 20.0864307159594 
2264	 15.0296737386537 
2265	 10.1780090496552 
2266	 14.2433486626904 
2267	 24.4468984954722 
2268	 22.9459616133432 
2269	 16.4995025449774 
2270	 9.27399472523277 
2271	-8.46812701910769 
2272	-17.8727217937468 
2273	-16.9273012774295 
2274	-16.3453311838222 
2275	 0.409947567912353 
2276	 9.09805432241643 
2277	 3.98685007773506 
2278	 4.50658122956756 
2279	-9.30771639624884 
2280	-10.2844958250241 
2281	 9.77197900803943 
2282	 16.2606064525697 
2283	 37.3858968068611 
2284	 57.6840060767475 
2285	 54.124366709877 
2286	 54.9130742861578 
2287	 54.5111601060181 
2288	 48.9134722783756 
2289	 35.64174134008 
2290	 30.7693999891543 
2291	 27.2497870936681 
2292	 20.6912529995547 
2293	 14.4511823325395 
2294	 11.1227634227076 
2295	 7.67356344131219 
2296	 7.46263833838757 
2297	 10.7170488600809 
2298	 14.4368437740737 
2299	 15.2288046917013 
2300	 20.8967158454015 
2301	 38.0899234864553 
2302	 42.7008099900535 
2303	 46.8704555853853 
2304	 43.6337207857202 
2305	 22.3699619844477 
2306	 16.6782139330717 
2307	 14.9902376054351 
2308	 15.0471815235484 
2309	 26.6373869761751 
2310	 28.4330159826487 
2311	 18.7948232946116 
2312	 11.3415971832112 
2313	 3.05683033796878 
2314	 1.16128542586567 
2315	 11.7349912327936 
2316	 16.0818534675935 
2317	 12.4198215478251 
2318	 10.5068703173787 
2319	 9.3019866484641 
2320	 5.0830446954937 
2321	 10.1546108968062 
2322	 16.1091702230351 
2323	 11.6347491120186 
2324	 8.41065881176374 
2325	 11.6458042770342 
2326	 5.05673766150279 
2327	-4.72691238731156 
2328	 3.07576778316236 
2329	-3.09368871975512 
2330	-0.236483485590777 
2331	 16.4594197660537 
2332	 22.3456058760751 
2333	 35.5150576525362 
2334	 35.03178383107 
2335	 30.4158745798409 
2336	 25.6652536708684 
2337	 17.3109675973251 
2338	 23.0908160857903 
2339	 17.6692360615931 
2340	 9.25902707099647 
2341	 0.952584700813306 
2342	-11.0404520869041 
2343	-15.1275076677461 
2344	-16.1088658233 
2345	-5.51042965927131 
2346	-0.971734153829861 
2347	 12.681967700281 
2348	 27.5263485578019 
2349	 21.0350394038182 
2350	 29.6925091789909 
2351	 29.7449289765905 
2352	 19.3943533233613 
2353	 24.4090192392969 
2354	 23.6812800695968 
2355	 15.150598713065 
2356	 10.8300769787683 
2357	 8.51169527113855 
2358	-5.44024242529944 
2359	-11.4663861951249 
2360	-7.5105118257221 
2361	-0.585748825666837 
2362	 13.261498350775 
2363	 13.6324028656502 
2364	 15.656167448105 
2365	 16.0545164318401 
2366	 12.3009155747268 
2367	 22.1910632213408 
2368	 22.9672084039371 
2369	 11.9613320221117 
2370	 2.93607448065774 
2371	-14.2494794379992 
2372	-29.3060631366179 
2373	-30.7623465357275 
2374	-35.9024079545886 
2375	-26.1207646383109 
2376	-0.994087277418299 
2377	 13.8409873433328 
2378	 28.2574888123894 
2379	 35.8563983688465 
2380	 30.7686909794968 
2381	 27.4490298576402 
2382	 27.7867676046423 
2383	 27.9731815619621 
2384	 25.2945094010212 
2385	 18.8340591136109 
2386	 12.8105836772633 
2387	 1.2842069004388 
2388	-7.98561075015487 
2389	-6.73996497129801 
2390	-4.49407674956761 
2391	-1.53909898235566 
2392	 1.27475020096887 
2393	-3.45231368939423 
2394	-6.15379532625241 
2395	 6.8992596642456 
2396	 16.3543291211336 
2397	 24.7924633921325 
2398	 32.7564884528872 
2399	 22.4344578625298 
2400	 18.0741301412306 
2401	 16.5533502697444 
2402	 12.765293460771 
2403	 15.1258302056726 
2404	 12.4187956233629 
2405	 16.4959534160732 
2406	 22.0594344699343 
2407	 21.1589129664087 
2408	 23.8226896106386 
2409	 26.5861386854036 
2410	 20.9114464705415 
2411	 21.1312848824219 
2412	 27.7052915738413 
2413	 25.0212703825415 
2414	 31.4367264836093 
2415	 35.3231870252509 
2416	 36.6594386799743 
2417	 44.4328934873226 
2418	 38.8091481375896 
2419	 38.6184552234826 
2420	 31.918939687477 
2421	 10.4641600894775 
2422	-8.06416250506648 
2423	-35.2002745509639 
2424	-54.6332149112088 
2425	-65.6862350313728 
2426	-68.0644210022469 
2427	-54.5561230814703 
2428	-43.3941807180893 
2429	-31.7752198026548 
2430	-16.8868682780125 
2431	-4.93750574025656 
2432	 2.50002538099351 
2433	 13.7646427993657 
2434	 10.2604007804039 
2435	 0.430711735403822 
2436	 3.04898934534781E-02 
2437	-14.283058618526 
2438	-18.0225031871324 
2439	-18.8513261268193 
2440	-30.7279865062216 
2441	-27.2347600652265 
2442	-15.7652240863916 
2443	-7.48732476228427 
2444	 3.87223024190113 
2445	 13.783856502456 
2446	 13.3619597699301 
2447	 21.3797176322476 
2448	 29.9182353453993 
2449	 30.48162662422 
2450	 36.9973604910704 
2451	 39.2002878703317 
2452	 38.2602515712654 
2453	 39.5363730875919 
2454	 39.3880126488002 
2455	 32.5241179423026 
2456	 23.8041926423192 
2457	 12.3901065256421 
2458	 6.22925346719982 
2459	 11.2366714492684 
2460	 8.47137588494203 
2461	 9.49916067295207 
2462	 7.62758668968987 
2463	-10.3700054350401 
2464	-17.8271173304131 
2465	-31.6229250499063 
2466	-32.8012592386444 
2467	-19.6473937423121 
2468	-15.5667859462756 
2469	-4.06823383345035 
2470	-7.96907924232252 
2471	-9.77692106636566 
2472	-3.86896905008925 
2473	-9.10570338538054 
2474	 0.742633170929728 
2475	 6.39511692226934 
2476	 4.73780791949103 
2477	 9.76626240699221 
2478	 0.600014530557361 
2479	-10.0014184322757 
2480	-18.0794037159184 
2481	-22.4000605823204 
2482	-24.3026126209593 
2483	-21.7483399319199 
2484	-12.9438302553077 
2485	-10.2763290956682 
2486	 0.161904271455995 
2487	 2.48306328377594 
2488	-5.22146472869648 
2489	-9.19542709855921E-02 
2490	 5.25888468231376 
2491	 15.3819369380823 
2492	 21.1962995210752 
2493	 5.06462385743222 
2494	-13.4293185785713 
2495	-28.4622156343588 
2496	-31.7484442984712 
2497	-15.063586829446 
2498	 4.15839903797149 
2499	 24.8576785550544 
2500	 35.2556074295866 
