Wavelength	2mm_BlackABS00000.asd
350	 0.278488158800239 
351	-0.361463817722466 
352	-7.38525074297384E-02 
353	 0.690722340893538 
354	 0.94652263291416 
355	 0.866382316032427 
356	 0.754919648368425 
357	 0.637155227534137 
358	 0.062112546200267 
359	-0.415418907531674 
360	 0.54110832548865 
361	 0.312015181939179 
362	-0.188464602770011 
363	 0.16818492530092 
364	-0.545977715298748 
365	 3.29610981874851E-02 
366	 1.62907346454752 
367	 0.459167335953454 
368	-0.155991227305537 
369	-0.101928776577871 
370	-0.169243732049028 
371	 1.71968172802478E-02 
372	 0.671923989825684 
373	 1.38206230691232 
374	 0.34380859423977 
375	-0.344502886214668 
376	-3.47600646947876E-02 
377	 1.04790030196877 
378	 0.644783392025455 
379	 4.14116934130965E-02 
380	 0.416982690046 
381	 1.13573345472791 
382	 0.578954227692798 
383	-0.408813460106969 
384	 1.12560054758283 
385	 0.808346745426995 
386	 0.142670703580331 
387	 1.24870013305407 
388	 1.70568889883999 
389	 1.40688097433742 
390	 1.04063316826041 
391	 2.64818430381261 
392	 1.16649459971501 
393	-0.785236808897004 
394	 1.79159740080718 
395	 3.48891528185862 
396	 2.94909099078703 
397	 0.761830098057635 
398	 1.02177870295848 
399	 1.50449841657678 
400	 1.36885431683029 
401	 0.737481581410476 
402	 1.06260911961748 
403	 1.26380513927039 
404	 0.303795042695773 
405	 0.262010751699408 
406	 1.05923444685879 
407	 1.88123376563481 
408	 0.762310943308119 
409	 0.298440127093948 
410	 0.20704632685826 
411	-0.737824281266274 
412	-0.43100482528697 
413	 0.595099506947722 
414	 1.40654337663056 
415	 0.869549786873659 
416	 0.789635683908904 
417	 1.12756237847584 
418	 0.2323853091192 
419	-0.39293933137117 
420	-6.68271202409921E-02 
421	 1.25094596585464 
422	 1.4566545754572 
423	 1.57183199727731 
424	 2.04745791528303 
425	 1.8907847076536 
426	 1.22590728918176 
427	 0.700626559471778 
428	 1.18741768177547 
429	 0.731354306876169 
430	 0.164985493553181 
431	 0.46457494465658 
432	 1.21908634690436 
433	 1.59807726429766 
434	 1.53125881798072 
435	 2.01174911800694 
436	 0.639911619652241 
437	-0.820512758184671 
438	 0.518664026765349 
439	 1.8343078700941 
440	 1.49906795882918 
441	-0.446795771523315 
442	 7.37091008205518E-02 
443	 0.243955982175817 
444	-0.326075780411478 
445	 6.37278192077329E-02 
446	-0.646876183897489 
447	-0.902558541846399 
448	 1.04483330016199 
449	 1.33562502605871 
450	 0.640459761535776 
451	 0.109218064199385 
452	 1.36328002629679 
453	 1.82788541353664 
454	 0.926462885062247 
455	-0.561412405254387 
456	-0.613793842065412 
457	-0.342318524227157 
458	-0.871377759095544 
459	 0.928963359534877 
460	 2.44650828443458 
461	 2.12274118960846 
462	 0.208298051862901 
463	 0.130036723053718 
464	 0.581902889196704 
465	-2.05625972225192 
466	-1.18610607677162 
467	 0.559222912279993 
468	 0.134640774945445 
469	 0.888688179409439 
470	 0.483123909337593 
471	-1.19868445855787 
472	-0.552164295009663 
473	-0.10130500844362 
474	-0.178052754993134 
475	-0.232646390297222 
476	-0.375000991726717 
477	-0.667115949880551 
478	-0.966763095632961 
479	-0.337154561517352 
480	 0.330849325907309 
481	 0.280292310060155 
482	-1.31588211928021 
483	-1.06190766722384 
484	 0.40508449198863 
485	 0.684710754401591 
486	-0.303791448897682 
487	-0.424374383181168 
488	 1.16030673233177 
489	-0.473163590040513 
490	-2.32854679503406 
491	-2.60995699081124 
492	-0.819664290519134 
493	 0.131631119469195 
494	-4.24795567129891E-02 
495	-0.369113836255721 
496	 0.766558273416865 
497	 0.813377983690736 
498	-1.56008109349607 
499	-1.57931485334325 
500	-0.771362411284825 
501	 2.36018674349432E-02 
502	 0.892667807241801 
503	 0.85148822165374 
504	 0.150642340555095 
505	-0.428297361355543 
506	-1.23945444893371 
507	-1.2055844648848 
508	 5.28265970854774E-02 
509	 3.55424341389154E-03 
510	-0.595612233515938 
511	-1.05698194581649 
512	-0.688808143998643 
513	-0.860643776285922 
514	-1.43304947475792 
515	-1.57568085129043 
516	-0.633940275542844 
517	 0.127290676274759 
518	-0.132405135763301 
519	 0.678486608000093 
520	 0.186221475285313 
521	-1.50848084017634 
522	-0.42399397146588 
523	-0.875082582436255 
524	-1.91712818638243 
525	-0.541608992302976 
526	-1.11278416679521 
527	-1.42423040570732 
528	 0.307821547754093 
529	-0.899730627539294 
530	-0.930948021421408 
531	 0.955778099746265 
532	-0.401569217734144 
533	-1.49203962305364 
534	-1.61027732560343 
535	-1.32358891946278 
536	-1.64043262455922 
537	-1.64523532351244 
538	-0.62659203837692 
539	-0.767677139583621 
540	-1.01021654429302 
541	-0.888882554758566 
542	-1.42473914428748 
543	-0.667933934077757 
544	 0.677066158873173 
545	 0.268043614932113 
546	-1.10096085390119 
547	-2.00018812386475 
548	-1.35216538929663 
549	-0.986697188110773 
550	-1.06148562193504 
551	-1.23358381904779 
552	-0.111950551540824 
553	-0.179264960897383 
554	-1.47699312144439 
555	-2.24843301946999 
556	-2.45178910711705 
557	-1.8540127121504 
558	-0.590745774518525 
559	-0.940408337550951 
560	-1.36235709063262 
561	-0.897085198107211 
562	-0.865796766479739 
563	-1.00376842308013 
564	-1.03971171657852 
565	-0.604341292397935 
566	-1.02850770620852 
567	-1.71675358209158 
568	-1.59201923615541 
569	-1.85599135993892 
570	-1.98317834388131 
571	-1.50845410135068 
572	-0.650952387608352 
573	-0.225232292842175 
574	-0.014643327986735 
575	 1.6585436954026 
576	 0.608426508996551 
577	-1.55237996658282 
578	-1.06332529127064 
579	-0.891686174082901 
580	-1.09596167677847 
581	-1.26580396147433 
582	-0.890252077400809 
583	-1.1756647921791 
584	-1.98206618796933 
585	-0.856694451981491 
586	-0.269845772856021 
587	-0.748721611327599 
588	-1.81275476947092 
589	-1.47872995905998 
590	-1.09724082322505 
591	-1.97993807726083 
592	-1.51108483941766 
593	-1.05045420500942 
594	-1.23715004028399 
595	-0.955300003738555 
596	-0.851323582109214 
597	-1.30181492738082 
598	-2.52102184225953 
599	-1.51054496963482 
600	-0.243880168227005 
601	-1.13104504603153 
602	 0.207985834641514 
603	 0.768172470970382 
604	-0.956815126071154 
605	-1.60708543842127 
606	-1.92437746175796 
607	-1.66624528420879 
608	 0.263860460834937 
609	 1.11342915316947 
610	 0.454887072115247 
611	-1.11612584937211 
612	-2.09187935842712 
613	-2.38264680364027 
614	-2.10366220386362 
615	-1.06015252480956 
616	-0.659660199085092 
617	-1.10052606510612 
618	-1.07800421131378 
619	-1.67418246414825 
620	-2.51686115426737 
621	-2.68084837132684 
622	-2.61259199004416 
623	-1.71947680598389 
624	-0.117993787495748 
625	-1.43212987742064 
626	-2.08730037620342 
627	-0.986642265235425 
628	-1.1970240745795 
629	-2.02145502445814 
630	-2.1639054906123 
631	 1.94630654350346E-02 
632	-0.529844959737511 
633	-2.41041957316849 
634	-3.09933885700158 
635	-2.63143153064199 
636	-1.66294421377952 
637	-0.850381544694841 
638	-0.817500700191196 
639	-1.26908613988235 
640	-1.83502888375791 
641	-2.01439220842864 
642	-1.42011357828505 
643	-0.867500986108656 
644	-1.25069945931599 
645	-1.25761652943672 
646	-1.17189578411104 
647	-1.49636931050385 
648	-3.36066758123067 
649	-2.81020937431187 
650	-0.379333068429043 
651	-1.14749535889594 
652	-0.429375729013043 
653	 0.459859054809657 
654	-1.29199539499957 
655	-2.27208680329733 
656	-1.74885691385669 
657	-0.226491357952833 
658	-0.792834019621234 
659	-1.69478148704678 
660	-2.00952012125729 
661	-1.743841794073 
662	-1.56283827018012 
663	-1.67968508626597 
664	-2.04516645416234 
665	-1.95435619945886 
666	-1.83683596852283 
667	-2.02875864940082 
668	-1.51748095932312 
669	-1.69678670553841 
670	-2.71094491762053 
671	-2.63387393229551 
672	-1.58181128473982 
673	-0.725217297686387 
674	-1.85466294438241 
675	-1.9946396295521 
676	-1.60212148534926 
677	-1.67896923856413 
678	-2.01320681633735 
679	-1.79872706224361 
680	-1.04614588797156 
681	-1.52219421401847 
682	-1.56020714511124 
683	-1.60108799901548 
684	-3.39306557479159 
685	-2.11730978534322 
686	-7.55936058438048E-02 
687	-0.698186456000204 
688	-1.7960247858638 
689	-2.56596942485026 
690	-2.62036912732218 
691	-2.12054728339321 
692	-1.61263734603791 
693	-1.21558484206617 
694	-0.683392732217687 
695	-1.34614846780997 
696	-2.51129510873538 
697	-2.86777861777889 
698	-1.85150272312411 
699	-0.687799956131795 
700	-0.421141360886457 
701	-1.29427927538936 
702	-2.19469232912744 
703	-2.24055841005865 
704	-0.605923997411228 
705	-0.644488957306727 
706	-1.73768160213501 
707	-1.98563808452046 
708	-2.36129246357349 
709	-1.73263702577704 
710	 1.43686328739285E-02 
711	-0.764400373509231 
712	-1.53738020536543 
713	-1.36087113332317 
714	-0.919743108663242 
715	-1.49614724134357 
716	-2.49697564642828 
717	-2.58651320303304 
718	-1.76745142943132 
719	-1.46317491802462 
720	-2.26752551782247 
721	-1.23560561576098 
722	-1.32556593316083 
723	-2.66549697118898 
724	-1.63524709588038 
725	-2.172032178397 
726	-3.20347105224242 
727	-1.90111936393005 
728	-0.332104251484594 
729	-0.240429189393409 
730	-2.13209247929262 
731	-2.73334346216981 
732	-2.79045664977361 
733	-2.66483982822876 
734	-2.13504389086778 
735	-1.67178681950014 
736	-1.64050478555275 
737	-2.19602653950703 
738	-1.37950239966197 
739	-1.23750851997784 
740	-2.8040111295419 
741	-0.885895491237464 
742	-0.820852197449753 
743	-3.07364510811239 
744	-1.21249424856242 
745	-0.166664173084885 
746	-0.649530086104042 
747	-1.65051252645218 
748	-2.09600070345972 
749	-2.1550666511405 
750	-2.08188948784906 
751	-1.35659394038595 
752	-1.42544886311369 
753	-2.46784289095771 
754	-3.10272942244167 
755	-2.20993744630461 
756	-1.07966138488239 
757	-1.84079774123571 
758	-2.16853607102528 
759	-1.97745445144881 
760	-1.78088999724033 
761	-3.2777924732297 
762	-2.42107874881047 
763	 0.370712549339542 
764	-0.825437363922514 
765	-1.80032276432508 
766	-1.71546693113517 
767	-1.07452873360893 
768	-1.98682613441989 
769	-2.56370589710222 
770	-1.64649800398233 
771	-1.69184525088702 
772	-2.32920303582794 
773	-2.63087846422044 
774	-0.924070737012433 
775	-0.589978829836048 
776	-1.01809093692245 
777	-0.598244355070722 
778	-1.44475312108595 
779	-1.86938563635017 
780	-1.08314997043142 
781	-1.51112404251488 
782	-1.85055928888316 
783	-1.64847713013218 
784	-1.07274492898105 
785	-0.617754664637041 
786	-0.630417629218092 
787	-1.1986995675305 
788	-1.43580063659238 
789	-1.0628614034236 
790	-0.335953424244438 
791	-0.467197495711847 
792	-1.11606990843776 
793	-2.08253292483863 
794	-3.11533008006484 
795	-2.49816680211659 
796	-1.88459991869096 
797	-2.63737379647077 
798	-1.13177243973856 
799	 0.368918487766176 
800	 0.173068924657072 
801	-2.77930434179473 
802	-2.75416864454149 
803	-1.31390518028075 
804	-2.99260971875524 
805	-2.38224048297488 
806	-1.36174024088626 
807	-1.88916421432236 
808	-2.71393780754402 
809	-1.99351678633211 
810	-0.288533655478991 
811	-0.840444217388762 
812	-1.54910422572955 
813	-1.87891093546488 
814	-1.83122270526273 
815	-2.07141852129274 
816	-1.48543925930614 
817	-9.33246613485308E-02 
818	-0.934699247086536 
819	-2.01467892912551 
820	-1.88136294549969 
821	 0.475749236622319 
822	-0.926435477375324 
823	-2.49486769182005 
824	-0.454532050766429 
825	-0.164852889936052 
826	-0.182617224854626 
827	-0.149001805612898 
828	-1.73860750159424 
829	-2.60015105714212 
830	-2.60879698793311 
831	-2.47885988021678 
832	-1.39522531840706 
833	-1.49951025972264 
834	-3.32130664151686 
835	-2.11928830938245 
836	-1.31676880010019 
837	-1.55234286972892 
838	-1.35040033172472 
839	-1.74254588655478 
840	-2.13983170481572 
841	-1.74480570768774 
842	-0.538306228677332 
843	 9.54825566269672E-02 
844	-0.319393890902957 
845	-0.922635453792015 
846	-0.647665153634199 
847	-0.615992954622588 
848	-2.43092307162182 
849	-2.01118239448943 
850	-1.20757951853752 
851	-1.56656532062712 
852	-1.97816876186793 
853	-2.04501141177242 
854	-1.73483988762505 
855	-1.33735862902497 
856	-1.12203312119542 
857	-1.32003717657775 
858	-1.7842140744288 
859	-0.794387607922333 
860	-0.844578625390459 
861	-2.22421884224069 
862	-2.31747023151816 
863	-1.19858233760222 
864	-0.596853317388943 
865	-2.1224955228344 
866	-1.42481377532063 
867	-0.906436703056516 
868	-1.74386717141039 
869	-1.49670928178715 
870	-0.874042490756032 
871	-0.559365725125863 
872	-1.17181599104685 
873	-0.928034355349842 
874	-0.57388507260953 
875	-0.92226790538495 
876	-2.03084152057229 
877	-1.83168309970695 
878	-0.33732040449499 
879	 0.676143507404196 
880	-0.626536333845074 
881	-2.37407291415879 
882	-2.47708753984807 
883	-1.75247499465391 
884	-2.08042949475928 
885	-3.30142981027493 
886	-2.82865728684046 
887	-2.83654599192322 
888	-3.01696887117313 
889	-2.4391209584067 
890	-0.748013616616955 
891	-0.912012827305765 
892	-2.5721253307521 
893	 0.5559261944816 
894	 0.390680360565052 
895	-1.8877080739362 
896	-1.89424401368465 
897	-0.491969244667496 
898	-0.263618364442805 
899	-1.69786885823041 
900	-0.495118138464779 
901	-0.560667800143167 
902	-1.76284322603222 
903	-2.0940510780329 
904	-0.677334034781071 
905	-3.57393953282845E-02 
906	-1.30064659748838 
907	-1.22543203289064 
908	-1.14209456115011 
909	-1.51782146430443 
910	-2.35426127662505 
911	-3.29468406923766 
912	-3.4560382850378 
913	-2.31507183949511 
914	-0.142456692072026 
915	 0.728036893745089 
916	 0.34971208818758 
917	 0.353183983881314 
918	-0.93844450198027 
919	-2.52945327292258 
920	-3.17023691143835 
921	-2.22839588113869 
922	-0.315819328689829 
923	 1.03495168402517 
924	-0.171621155517032 
925	-0.683206404356972 
926	-1.21001696451004 
927	-2.20663683165297 
928	-0.755956701590684 
929	 0.132605508155236 
930	-0.412617255423176 
931	-1.55065395056895 
932	-1.62405800866755 
933	-1.93197192703749 
934	-3.03738869753468 
935	-1.27976061651545 
936	-1.91275458546731E-02 
937	-0.508139268714142 
938	-2.27810805973867 
939	-2.56745678597529 
940	-2.06307486976236 
941	-1.76915649976519 
942	-1.56893734260717 
943	-1.49513173760365 
944	-1.50730259516164 
945	-1.5338166450045 
946	-1.84371887119744 
947	-2.08075360992634 
948	-1.83877403867117 
949	-0.680490782718013 
950	 3.66975706959627E-02 
951	-8.85987498138409E-02 
952	-0.830142097082952 
953	-1.63391395036836 
954	-2.00390790073436 
955	-1.79352891771346 
956	-1.51699046496235 
957	-0.664509056143766 
958	-6.70579160807415E-02 
959	-0.74736007858205 
960	-0.395861506815177 
961	-0.790674953918562 
962	-1.8486538174152 
963	 0.320325797538378 
964	 0.943223299896707 
965	 7.45156653978734E-02 
966	 5.45892832323349 
967	 6.22359502364702 
968	 5.42327773184728 
969	 4.90514744413186 
970	 1.61528597315985 
971	 0.723049112722004 
972	 2.26307574857317 
973	 2.22002680996613 
974	 2.20714062383238 
975	 2.71748365762696 
976	 3.77391698414772 
977	 2.13830380113224 
978	 1.3992041132789 
979	 0.604926523395653 
980	-0.632688021688149 
981	 0.353044945031818 
982	 3.61391553512671 
983	 6.1482779705009 
984	 6.66288215007481 
985	 5.82974277450565 
986	 6.05644427789517 
987	 6.34186666968367 
988	 4.21413005416924 
989	 4.03844054546004E-02 
990	-0.181753745612464 
991	-0.411980722907967 
992	-0.96014513907201 
993	 0.827820239224177 
994	 3.81353406433121 
995	 4.84823574057512 
996	 4.64164796494326 
997	 5.94545011409568 
998	 5.83565631105979 
999	 4.7641805450121 
1000	 3.02419553658812 
1001	 0.306724766056452 
1002	 3.2172199612961 
1003	 4.78460623837923 
1004	 2.21996408185495 
1005	 2.15240009770935 
1006	 4.78131374811483 
1007	 3.77883568092523 
1008	 0.161583400128494 
1009	 0.39860609011461 
1010	-0.120354320054646 
1011	-1.96968038272379 
1012	 1.80704491470302 
1013	 2.50054573475473 
1014	-0.447066084170952 
1015	 1.0902268764291 
1016	-0.729365619189083 
1017	-1.67570232821791 
1018	-0.744181898362933 
1019	-0.377415272517248 
1020	 1.60046720135911 
1021	 1.23560598719277 
1022	 2.65031446211577 
1023	 3.04517907990012 
1024	 1.82659666780862 
1025	-1.41873079405129 
1026	-0.825996674834216 
1027	-0.944074303023291 
1028	 0.332417309148959 
1029	 0.762794134912354 
1030	-1.12379998350407 
1031	-0.924532837940542 
1032	-2.77017892645523 
1033	-4.00315494204767 
1034	-2.66342277291399 
1035	-5.35212972828234 
1036	-7.16237129237872 
1037	-6.29469706515618 
1038	-6.10531945098224 
1039	-2.08259306580079 
1040	 0.442903764116517 
1041	 3.50357338191679 
1042	 4.39001294552567 
1043	 3.29520968374868 
1044	 4.8479459195023 
1045	 4.280085685845 
1046	 4.33949232238586 
1047	 5.70845489295282 
1048	 3.82150653869116 
1049	 3.57223675631144 
1050	 3.57389308858071 
1051	 1.41877454383737 
1052	 9.95882033290882E-02 
1053	-3.02447798351262 
1054	-4.67007582119651 
1055	-2.17853443221551 
1056	-0.229946694298807 
1057	 1.99130402286824 
1058	 8.35311735947926 
1059	 8.16517828867061 
1060	 2.86532892277326 
1061	 0.812331904022928 
1062	-3.60228648201863 
1063	-6.18476253503213 
1064	-4.81253016518957 
1065	-2.20594347690557 
1066	-3.57839271184917 
1067	-4.6550135624773 
1068	-2.32815305015702 
1069	-0.86383419810192 
1070	 1.69463262862928 
1071	 4.18967526987887 
1072	 3.79986614645525 
1073	 1.63416851128878 
1074	 1.30506412320261 
1075	 2.64631455379882 
1076	 1.99942734077945 
1077	 0.872020462654592 
1078	-1.52135835478528E-02 
1079	-2.58930530091104 
1080	-3.79679489726672 
1081	-5.20264695501034 
1082	-4.53343297143614 
1083	-1.24835062593195 
1084	 0.183846670267415 
1085	 0.959883110494621 
1086	 2.7833272177549 
1087	 1.542336958974 
1088	-8.28952872318372E-02 
1089	 0.12230149696358 
1090	-0.969053805390317 
1091	-1.93853865295224 
1092	-3.7622142380115 
1093	-3.69448498662168 
1094	-3.09354219609081 
1095	-2.06290472834014 
1096	 0.828422312045416 
1097	 1.94753922534956 
1098	 2.47247189146046 
1099	 2.68033371635762 
1100	 2.10815484685141 
1101	 1.67427928930449 
1102	-0.158777382083488 
1103	 0.344717528553372 
1104	 2.37687568316532 
1105	 5.14690812453739 
1106	 4.27226492513025 
1107	 2.01614280762551 
1108	 1.93323931200712 
1109	 0.72532596929302 
1110	 0.10351716848973 
1111	 2.71278501683238 
1112	 3.1970695235047 
1113	 0.847462249373341 
1114	 0.39745081464188 
1115	 1.90705922734889 
1116	 2.31507456806526 
1117	 2.89466026231818 
1118	 1.71711293039507 
1119	-1.25802562952844 
1120	-2.52661512133123 
1121	-7.22093003971255 
1122	-6.7509766022124 
1123	 1.79554165736447 
1124	 3.85361027871704 
1125	 2.71147578218156 
1126	 6.61983153848308 
1127	 4.84060385453427 
1128	-3.97062737217583 
1129	-4.30294212997534 
1130	-1.79229041745208 
1131	-0.218827976143047 
1132	 5.48835650089463 
1133	 6.11418319279229 
1134	 4.27976922035485 
1135	 2.44600430134944 
1136	-2.42937283693533 
1137	-4.50973028085649 
1138	-7.19532457076129 
1139	-6.92646893478815 
1140	-2.64304865663463 
1141	-0.98798553670142 
1142	 2.68822215092694 
1143	 3.51704504040971 
1144	-0.755359873991588 
1145	-1.41449598589499 
1146	-0.81982308944515 
1147	-0.696908737424302 
1148	 4.33990056251672E-02 
1149	 3.07321348275966 
1150	 4.06108486380993 
1151	 4.5410900611509 
1152	 3.02524557776476 
1153	 0.752693795957713 
1154	-2.12397220173635 
1155	-9.86303445796555 
1156	-10.7177725391073 
1157	-7.94170215643776 
1158	-6.05593489041781 
1159	 0.473871525392277 
1160	 2.73936727730526 
1161	 2.00050439599988 
1162	 2.20673199513239 
1163	 1.00300145129993 
1164	 1.1699519824257 
1165	 3.47744462551906 
1166	 3.62380458016059 
1167	 2.70942382877051 
1168	 1.43804640807096 
1169	 2.04468848523326 
1170	 2.47011404774285 
1171	 2.76189096413175 
1172	 4.07428860203295 
1173	 6.72406714352065 
1174	 10.3830961873526 
1175	 10.3051221887529 
1176	 11.869423527541 
1177	 10.0676054753362 
1178	 1.46063385922088 
1179	-2.02067213600288 
1180	-4.85273945118466 
1181	-5.50866501922989 
1182	-2.92913917091486 
1183	-1.93374377650099 
1184	 0.313961299390052 
1185	 1.64458380504948 
1186	 1.63586367764997 
1187	 1.40436067369435 
1188	 1.56346304826711 
1189	 1.56474723319698 
1190	 0.805985506380595 
1191	 0.119191288917256 
1192	-0.825215544241927 
1193	-0.575571003428426 
1194	-0.347687117967564 
1195	-1.35171067259698 
1196	-0.948796394562161 
1197	 0.593605892394372 
1198	 1.40034975164308 
1199	 2.58982267104728 
1200	 3.17571626974658 
1201	 3.42746574588635 
1202	 2.18912968292752 
1203	-1.18272165304875 
1204	-1.65611052725823 
1205	-1.99560835307245 
1206	-1.21048124647613 
1207	 3.63973502362178 
1208	 5.70480539627639 
1209	 6.60017731134955 
1210	 6.37033123268635 
1211	 5.09407266770589 
1212	 1.93057118045947 
1213	-0.98298464764803 
1214	 1.22511237473338 
1215	 5.9702796284947 
1216	 6.12314944864477 
1217	 6.87565191048595 
1218	 8.52346800485859 
1219	 7.6047667129225 
1220	 8.15465490671821 
1221	 7.01385144509239 
1222	 4.29857818570742 
1223	 2.33937977853557 
1224	-0.554117199140196 
1225	-1.84982155751729 
1226	-1.51533581278404 
1227	-1.49387152490317 
1228	-1.118506097707 
1229	-1.35337848114403 
1230	-2.17668885816782 
1231	-2.71880481440588 
1232	-2.65306743968727 
1233	-3.33444982697251 
1234	-4.68457333940404 
1235	-4.38532199207969 
1236	-3.25653383736312 
1237	-4.1519250399803 
1238	-2.42340230934175 
1239	-3.11472984797213 
1240	-4.24290470296254 
1241	-3.08237909149789 
1242	-2.69272369803467 
1243	-2.78072139487625 
1244	-2.74875391616485 
1245	-2.32738113998842 
1246	-0.865979165559822 
1247	 0.919954725202015 
1248	 0.824757137476948 
1249	-0.278001708162322 
1250	-0.29496338614124 
1251	-1.20262515072188 
1252	-0.831823164958409 
1253	 2.16000349003946 
1254	 2.58530366565519 
1255	 1.49968637023578 
1256	 1.69730047472317 
1257	 1.61832873342693 
1258	 1.19618994347809 
1259	 2.33024339871901 
1260	 1.21279211441077 
1261	-2.5480255574827 
1262	-4.46286125238877 
1263	-4.41969574669493 
1264	-5.83328146824621 
1265	-4.69707776864059 
1266	-2.07279335603985 
1267	-3.29239091995094 
1268	-3.21575943512686 
1269	-1.01629470190723 
1270	-2.64428661521176 
1271	 1.14349992799488 
1272	 4.7061357852396 
1273	 4.27462910956409 
1274	 7.43383340974554 
1275	 5.87061162438767 
1276	 3.11002537028074 
1277	 2.28543551666667 
1278	-0.537162999659053 
1279	-1.86376848217303 
1280	-2.89440662732655 
1281	-3.00931513048381 
1282	-1.73066563373662 
1283	-1.46505538162505 
1284	-0.897462599977053 
1285	-0.40860135951319 
1286	-0.676183760537446 
1287	-0.344163616150206 
1288	 0.595107460427041 
1289	 1.01629787018702 
1290	 0.695254218065196 
1291	 1.22042571448687 
1292	 2.32230285868698 
1293	-2.85866169436634E-02 
1294	 0.329750413548901 
1295	 2.25474374615637 
1296	 2.85531329298954 
1297	 2.99123606662692 
1298	 1.51823522319352 
1299	 0.187027037699365 
1300	-1.26470498226763 
1301	-0.625436090480187 
1302	 0.018259484465776 
1303	-0.103546428027714 
1304	 0.227929509140757 
1305	-0.177547843774146 
1306	-0.206261263162936 
1307	 0.684706175744935 
1308	 0.78083722350277 
1309	 9.51232775234932E-02 
1310	 0.509843703453413 
1311	 0.684997168076308 
1312	 2.15575459495869 
1313	 8.50801881475422 
1314	 8.04462414225283 
1315	 3.07255794514444 
1316	 0.995826232959394 
1317	-6.44584846381757 
1318	-8.54598727803082 
1319	-5.66915522542277 
1320	-2.01138810278294 
1321	-2.69206171617573 
1322	-0.982036874613697 
1323	-4.16610070040057E-02 
1324	 0.447779564252667 
1325	 3.13077727359358 
1326	 1.77078531233231 
1327	-2.82405037391846 
1328	-4.20090752961953 
1329	-5.25479290557205 
1330	-5.08254615123576 
1331	-0.273219606660889 
1332	 4.72329341191252 
1333	 8.45455553370013 
1334	 12.871293353994 
1335	 15.2728559180165 
1336	 12.9961837122848 
1337	 7.60255040280977 
1338	 3.38843566199405 
1339	 2.02858668826451 
1340	 0.618909398533721 
1341	-0.273069769443398 
1342	 0.836170435405394 
1343	-1.05585421416028 
1344	-5.51911593684904 
1345	-7.09610826044792 
1346	-7.98379343040783 
1347	-8.69406373890842 
1348	-8.79055571546778 
1349	-7.5276082884529 
1350	-5.32321876858282 
1351	-3.35490114167562 
1352	-0.299313281914642 
1353	 1.91608528703181 
1354	 4.69733828873473 
1355	 5.35248658426695 
1356	 2.06786570852438 
1357	 2.05842574670776 
1358	 0.316153313025442 
1359	-4.40108249581872 
1360	-2.06856091053689 
1361	-0.462407774417296 
1362	-1.41069081840357 
1363	 2.54565203381373 
1364	 4.40145679655649 
1365	 3.30684267283316 
1366	 4.79851779741795 
1367	 4.38057995281731 
1368	 2.78216569019878 
1369	 2.88125866373146 
1370	 3.34744239395169 
1371	 4.34967336343871 
1372	 3.16476072768065 
1373	-0.459328372107284 
1374	-4.19329366959937 
1375	-4.67928412029818 
1376	-1.07059834030827 
1377	 2.28978956986301 
1378	 4.482448612044 
1379	 4.45175234638837 
1380	 1.77374074661576 
1381	-1.74291440664376E-03 
1382	-0.373914403976589 
1383	-1.24772008310064 
1384	-2.23170504515359 
1385	-1.89050878218525 
1386	-1.20988811581544 
1387	 0.610680297035275 
1388	 4.13835412910093 
1389	 5.60460533205511 
1390	 5.22021807530341 
1391	 2.37112051074749 
1392	 1.50629220334328 
1393	-1.29849581417332 
1394	-1.43913841070295 
1395	 1.10491156343862 
1396	 3.1818619568003 
1397	 4.02539383047491 
1398	 4.13325022872343 
1399	 4.88214160118214 
1400	 4.59591561363096 
1401	 3.68297939870226 
1402	 3.69720585986158 
1403	 0.355481372032852 
1404	-1.59167807645162 
1405	-1.85340569689044 
1406	-2.53211641527455 
1407	-1.93338122756288 
1408	-2.25685388247162 
1409	-2.23309415476565 
1410	-1.66702445495902 
1411	 0.132325415109352 
1412	 2.77243059625404 
1413	 5.83279279477436 
1414	 6.44978703071504 
1415	 2.98473304397903 
1416	 0.854362502504248 
1417	-1.56181916923128 
1418	-3.34758623635616 
1419	-1.03242963860248 
1420	-0.199834892523596 
1421	-1.81344147817722 
1422	-2.33939317018639 
1423	-4.18687162608391 
1424	-3.58817552772794 
1425	-1.67997975752862 
1426	-3.9931394320304 
1427	-0.679410653157581 
1428	 3.20195972540385 
1429	 4.5687018562149 
1430	 8.04114335746097 
1431	 6.25176132669374 
1432	 4.27082890402067 
1433	 1.96844342479641 
1434	 0.943153123661113 
1435	 4.53905503872619 
1436	 4.02212560298207 
1437	 3.44498419457743 
1438	 3.41166546442128 
1439	 1.47548666545424 
1440	 0.745927707484642 
1441	-0.124958701117552 
1442	 1.31563405395589 
1443	 3.32916021312072 
1444	 3.75506641134988 
1445	 3.4927948878191 
1446	 2.56833773565044 
1447	 1.52571441513353 
1448	-1.80076370690957 
1449	-1.34889457023245 
1450	 2.31625149476909 
1451	 3.70449242847666 
1452	 5.62796998672525 
1453	 7.02661801364173 
1454	 5.37811689753565 
1455	 3.49056503901082 
1456	 1.80142911724216 
1457	-0.674122185676117 
1458	-1.43520118391813 
1459	-1.1274127375334 
1460	 3.60041739818517E-03 
1461	 1.68167016117212 
1462	 3.08213721445896 
1463	 4.85205187763289 
1464	 6.63991323481776 
1465	 5.9810467686408 
1466	 3.11566268827062 
1467	 2.22007776100894 
1468	 1.80965673929089 
1469	 1.43948277148854 
1470	 3.66003513594979 
1471	 6.22018139261408 
1472	 5.97727651512275 
1473	 5.42565500219927 
1474	 5.08575359779218 
1475	 2.9656976299577 
1476	 1.28259686438684 
1477	 2.91596207596978 
1478	 6.66990480664107 
1479	 6.64997203506054 
1480	 6.44051885475351 
1481	 7.98992653846492 
1482	 6.63787493192316 
1483	 7.73276594391077 
1484	 9.48697073563769 
1485	 5.17967837044915 
1486	 1.59869222587171 
1487	 0.419492028464446 
1488	-1.60764068690881 
1489	 1.17622067503795 
1490	 3.95245531345267 
1491	 4.60112138475364 
1492	 7.52557323163728 
1493	 7.12869111496584 
1494	 6.35663031245392 
1495	 4.74635869839009 
1496	-1.3043513771089 
1497	-4.62497079387699 
1498	-5.17372348158034 
1499	-4.56954325098564 
1500	-0.344814443666267 
1501	 3.04959878306508 
1502	 0.760917865018046 
1503	-1.33311615395963 
1504	-0.549323629464979 
1505	-1.93183589719389 
1506	-0.288794289319487 
1507	 2.98810476265036 
1508	-0.338768507514943 
1509	-2.96193176031701 
1510	-3.34403731326285 
1511	-6.8702651767804 
1512	-8.72130226228682 
1513	-8.14539869271907 
1514	-6.45426914011817 
1515	-1.00331175459906 
1516	 2.82090078244211 
1517	 2.31573366540969 
1518	 2.09277754745142 
1519	 5.31890866460866E-02 
1520	-1.59243258870724 
1521	 2.77943346130133 
1522	 6.12808367464833 
1523	 5.11431457912634 
1524	 4.85073278578039 
1525	 4.36726703488785 
1526	 2.06672790469228 
1527	 0.19920132942317 
1528	-0.817848129061993 
1529	-0.487447461015061 
1530	 1.77420981508639 
1531	 5.04629505779043 
1532	 9.08558535219953 
1533	 11.3511503406386 
1534	 10.9596662542294 
1535	 11.0769366144417 
1536	 12.6505398000249 
1537	 12.3879864858453 
1538	 11.1370187881523 
1539	 10.7900888733204 
1540	 7.65178423642688 
1541	 2.20814209821776 
1542	-1.16263648958576 
1543	-2.74841969407244 
1544	-1.95504365048198 
1545	 2.50018580010578 
1546	 4.39086181090111 
1547	 3.70468359150322 
1548	 3.25383396177775 
1549	 3.37475977227493 
1550	 2.93006841405815 
1551	 2.97008169397691 
1552	 3.65766387341253 
1553	-0.851708726683903 
1554	-4.458362638169 
1555	-6.07661037720934 
1556	-8.34634872441924 
1557	-6.56049851075396 
1558	-3.93178777988034 
1559	-2.77407772087967 
1560	-0.798686084664453 
1561	 0.160233022043656 
1562	 1.64259346585986 
1563	 4.98288325928262 
1564	 4.92628096087071 
1565	 2.63110545780687 
1566	 0.645346405132343 
1567	-1.0283580370933 
1568	-1.75760619578868 
1569	 0.297259626741914 
1570	 2.69320289834914 
1571	 1.30761879899829 
1572	 1.51092507148281 
1573	 2.67925460361716 
1574	 3.09606088249919 
1575	 4.82577884507101 
1576	 6.48611350843438 
1577	 7.39146337481457 
1578	 6.32624222957077 
1579	 3.61451532752116 
1580	 0.831615985246599 
1581	-1.31001072539068 
1582	-3.16434554257228 
1583	-1.46264584957233 
1584	 1.84903399258517 
1585	 1.54111476296599 
1586	 1.5130387382748 
1587	 1.0185272471738 
1588	 0.329094417502246 
1589	 0.961351851873938 
1590	 2.73845537071706 
1591	 7.25285368698035 
1592	 8.078526132471 
1593	 7.57951386287547 
1594	 10.3851784208041 
1595	 10.8230121026556 
1596	 9.18857466017993 
1597	 9.37887626274345 
1598	 5.38058032233819 
1599	-1.2833737559792 
1600	-2.24248200682097 
1601	-1.94695620600836 
1602	-1.75081440222073 
1603	-1.00143140983298 
1604	-2.16050047770762 
1605	-4.31252843924675 
1606	-5.22235935331288 
1607	-4.75913032938707 
1608	-2.43895443518487 
1609	-3.98486884290414E-02 
1610	 0.27376943231736 
1611	 1.02329624751542 
1612	-0.264767062716523 
1613	-2.41158399905607 
1614	-1.1005756806179 
1615	 0.459470556566959 
1616	 2.27577804515465 
1617	 4.69286089303427 
1618	 7.04843039223397 
1619	 8.92253490991517 
1620	 5.50301382999359 
1621	 1.24407914566228 
1622	-0.986828255118599 
1623	-3.98590966104901 
1624	-1.2799508358069 
1625	 4.2104888642615 
1626	 3.94794702491433 
1627	 3.21953042851053 
1628	 3.0871063075855 
1629	 1.47795572375668 
1630	 4.85156818803241 
1631	 6.0577097787441 
1632	 3.26936520906888 
1633	 4.06742483383182 
1634	-0.158874261455084 
1635	-9.76808204487244E-02 
1636	 5.07492919300786 
1637	 6.06790044312051 
1638	 6.83269165432567 
1639	 6.91645623638278 
1640	 3.21306141177366 
1641	 2.40186394779393 
1642	 5.04787709851071 
1643	 5.4402481692342 
1644	 5.49805279107284 
1645	 4.32779083699574 
1646	-0.415753411215257 
1647	-1.82369267191147 
1648	-1.58010605020681 
1649	-1.63507712809875 
1650	 0.212588579981727 
1651	 1.07359709500811 
1652	 1.91721733501626 
1653	 1.73409611620274 
1654	 0.683457759271286 
1655	 4.83608443730069E-02 
1656	-2.43117503235092 
1657	-3.1034147193973 
1658	-2.04069021108189 
1659	-1.06579002439529 
1660	 0.154162241239957 
1661	 1.91677687927744 
1662	 5.23333825203485 
1663	 6.11091384819041 
1664	 6.56309202214534 
1665	 6.44865029799063 
1666	 4.02454199575475 
1667	 3.39939217552005 
1668	 3.42428847230669 
1669	 2.88936390754309 
1670	 2.61088273337087 
1671	 1.93678026262138 
1672	 1.13851804753116 
1673	 0.446445998958565 
1674	-0.984960367161781 
1675	-0.32378598514496 
1676	 1.2261527911758 
1677	 2.24038725293131 
1678	 5.62219446893937 
1679	 4.25410344659939 
1680	-0.85561093506594 
1681	-1.3136713740942 
1682	-2.29487427891765 
1683	 0.133067541236166 
1684	 4.76616926423148 
1685	 8.45816378651027 
1686	 5.70049155516698 
1687	 2.38548636567512 
1688	 2.16079013621736 
1689	 4.50262014105649 
1690	 5.0183095061735 
1691	 7.3437292993601 
1692	 7.58524723183928 
1693	 4.07124217727684 
1694	 1.94935337666502 
1695	 0.089638491160714 
1696	-1.74037386070681 
1697	-4.04144429520198 
1698	-4.94421759512183 
1699	-5.43232456295875 
1700	-5.04209063178102 
1701	-2.35277079228997 
1702	-1.23139794522262 
1703	-0.277049756341894 
1704	 0.222807172846297 
1705	-0.151766483223281 
1706	-0.467938312452373 
1707	-0.107904196130384 
1708	-1.64112431772019 
1709	-6.5022662310158 
1710	-6.57486044164364 
1711	-4.56016410962698 
1712	-4.3251762017845 
1713	-2.47445828377053 
1714	 0.166290477774679 
1715	 1.83878466308072 
1716	 3.02261146131926 
1717	 7.5013589063837 
1718	 6.96145074380155 
1719	 1.01794363892271 
1720	 6.54213000168954E-02 
1721	 0.420042898102621 
1722	-0.90132879407855 
1723	-1.41277565370008 
1724	-2.22074673135218 
1725	-4.81676656691381 
1726	-5.21988959788888 
1727	-3.86755328442203 
1728	-4.2922385599612 
1729	-5.60569151768288 
1730	-4.3770195740866 
1731	-4.63860635222787 
1732	-2.01931147518329 
1733	-0.982057012408282 
1734	-1.58438689861248 
1735	-0.780135704024203 
1736	 4.97730784307213E-02 
1737	 0.605975111872204 
1738	 2.39842782880624 
1739	 3.23449096530349 
1740	 2.96084816348373 
1741	 2.66368369455438 
1742	 1.92555211515487 
1743	 2.10043120340475 
1744	 3.70032146514491 
1745	 2.47548510778578 
1746	 0.061108189016283 
1747	-2.18225948161049 
1748	-8.8326910975995 
1749	-8.62020218632694 
1750	-4.25872615709693 
1751	-0.255647394310534 
1752	 8.77479900127413 
1753	 10.996954618418 
1754	 11.1700780449103 
1755	 7.55494705819579 
1756	 12.7767730134097 
1757	 14.6552301412477 
1758	-0.622331296018409 
1759	-8.16689478774666 
1760	-27.6128970993809 
1761	-33.8926476495324 
1762	-31.5742494143516 
1763	-21.0983632267943 
1764	-7.3689976156249 
1765	 31.3388772640047 
1766	 33.1617321667364 
1767	 12.9279296673868 
1768	 10.0543009002388 
1769	-3.04897599034451 
1770	-15.7302122354243 
1771	-10.2001792252834 
1772	 11.1976221840377 
1773	 15.1231336677163 
1774	 5.25737227089896 
1775	 6.3808484544493 
1776	 7.37430906759232 
1777	 7.29196165613675 
1778	 8.61526359300569 
1779	 16.4766304360847 
1780	 21.363116307527 
1781	 16.607640179469 
1782	-6.3059356762395 
1783	-13.856446892383 
1784	-12.4174711263614 
1785	-5.85509251210127 
1786	-0.60059667912693 
1787	 11.2301930373963 
1788	 12.7846797254006 
1789	 9.66072095439437 
1790	-4.52665951281189 
1791	-6.92268572191737 
1792	 3.91553977760747 
1793	-5.83323004203219 
1794	-8.21183784544502 
1795	-5.28278634897232 
1796	 4.79926941571485 
1797	 2.74342701873821 
1798	-2.17068302783484 
1799	 4.37272758952614 
1800	 6.4676447678325 
1801	-10.0698486577613 
1802	-17.5165315183232 
1803	-23.5509447823027 
1804	-44.0488238587424 
1805	-48.7716134282215 
1806	-44.4714190536408 
1807	-21.4250200275393 
1808	-19.1268238420138 
1809	-14.9983611313171 
1810	-2.47162198108727 
1811	-11.9617593651778 
1812	-6.05212849486349 
1813	 21.9784295815133 
1814	 24.7757616512725 
1815	 10.5947453086805 
1816	 8.26582256342163 
1817	 1.41692783034052 
1818	-12.3771663690013 
1819	-7.17622538184751 
1820	 6.25890811264976 
1821	 10.0261356374321 
1822	 11.80052325492 
1823	 11.5992538421495 
1824	 7.4645965522981 
1825	 4.165791479359 
1826	-7.07255114732497 
1827	-7.76103767842152 
1828	-0.963559363284082 
1829	 7.26662542332845 
1830	 5.42917894399957 
1831	 5.99984157125604 
1832	 1.00376933398583 
1833	-23.7771172958683 
1834	-27.4739645946238 
1835	-17.5721897900747 
1836	-13.9864427494848 
1837	-2.66150994127972 
1838	 1.94799380716497 
1839	-4.22626777496206 
1840	-0.703187807596136 
1841	-0.717514087187751 
1842	-0.634826273815457 
1843	 1.17193819355703 
1844	-0.90117630565988 
1845	 3.98798174669332 
1846	 18.8347498415617 
1847	 23.2507549926526 
1848	 21.9487457824146 
1849	 33.8260870307996 
1850	 30.5673183897559 
1851	 24.293709179739 
1852	 20.1424387718964 
1853	 13.057185090995 
1854	 8.34316099944727 
1855	 5.91370043978447 
1856	 4.15698859942461 
1857	 1.11217038585327 
1858	 6.06804169370334 
1859	 13.164011389857 
1860	 7.97492153847537 
1861	 8.9850991963611 
1862	 10.7906155603137 
1863	 6.32626741901556 
1864	-4.04718368866242 
1865	-8.6110150766667 
1866	-19.4319114597557 
1867	-20.9395133410723 
1868	-10.2273495537176 
1869	-9.50371679664602 
1870	-13.3727617297545 
1871	-8.07983680536268 
1872	-12.8602162265884 
1873	-18.0407254807394 
1874	-16.5425764979051 
1875	-14.5087757761649 
1876	-14.4180192495101 
1877	-14.276296343883 
1878	-15.4805605709268 
1879	-18.5138393913406 
1880	-19.5226116752483 
1881	-17.7428872925267 
1882	-17.8306547304487 
1883	-9.90314544296423 
1884	-1.09594356083292 
1885	-2.46355305530309 
1886	 0.379318137459505 
1887	 1.34112553384876 
1888	-1.24445561900321 
1889	-6.82607502008488 
1890	 4.95171260612599 
1891	 17.1487819457595 
1892	 22.991084268927 
1893	 28.3529121379248 
1894	 12.3045395151674 
1895	-5.274015361267 
1896	-3.66058565341777 
1897	-5.88613002847312 
1898	-5.42518847499192 
1899	-3.29693640378052 
1900	 3.62816094774446 
1901	 1.39312360287248 
1902	 6.49781439345169 
1903	 1.60686782926313 
1904	-8.75925415834962 
1905	-9.4220669808276 
1906	-21.1515968915607 
1907	-20.3144217208785 
1908	-21.8938344950884 
1909	-23.1415131842639 
1910	-27.8344497256287 
1911	-34.4827035709122 
1912	-36.050730140497 
1913	-39.2833012203355 
1914	-31.9967762415758 
1915	-22.86447008465 
1916	-20.9244073952153 
1917	-17.1020767265579 
1918	-9.69788708552163 
1919	-3.35742707751608 
1920	 14.4751923814376 
1921	 9.82670031406646 
1922	-15.2410197074469 
1923	-24.1361556519505 
1924	-48.6161426083645 
1925	-51.866891983425 
1926	-33.6733247661069 
1927	-6.98051461817267 
1928	-1.46542706089132 
1929	 2.03745895020169 
1930	 2.12553007513438 
1931	-17.3941789613258 
1932	-17.7017628504492 
1933	-4.84009470150301 
1934	 0.322308498298567 
1935	 10.9746886705368 
1936	 12.5874061302644 
1937	 3.02977329296127 
1938	 0.337666584391748 
1939	-6.95810982597168 
1940	-3.58209287871248 
1941	-6.10797843250129 
1942	-6.08618047472518 
1943	-8.23750171872725 
1944	-11.8961028447707 
1945	-18.6115877192914 
1946	-27.9783144928353 
1947	-31.9478097195366 
1948	-44.0307721427335 
1949	-43.9199095244698 
1950	-28.5120559636313 
1951	-19.6372102781712 
1952	-5.77365029299917 
1953	 5.54052016740976 
1954	 8.91321202096324 
1955	 2.3993596746915 
1956	 5.26111175760752 
1957	 11.5430945367589 
1958	 8.31128404502151 
1959	 4.31051659955392 
1960	-0.266888489531372 
1961	-23.1298605991356 
1962	-27.1521244487256 
1963	-11.8325666153018 
1964	-7.58945836526204 
1965	-1.95892443176805 
1966	 3.45791578074688 
1967	 7.52544535932045 
1968	 1.2456745471017 
1969	 8.88854477144488 
1970	 31.7194195800687 
1971	 35.1928627037874 
1972	 39.0817593463649 
1973	 33.1494383249464 
1974	 4.45521957817434 
1975	-7.62510950297096 
1976	-24.7781429394982 
1977	-28.0634403178769 
1978	-14.6825273441942 
1979	-2.22557948237755 
1980	 4.37618305803507 
1981	 18.1201854686011 
1982	 20.7309968994458 
1983	 11.6274267700431 
1984	 8.20103075786661 
1985	 5.25923329166904 
1986	 1.61811534170593 
1987	-5.46134811439096 
1988	-8.64755558207631 
1989	-6.87045458890435 
1990	-10.411672572925 
1991	-17.602950198876 
1992	-20.5393133286642 
1993	-24.6353449314701 
1994	-29.7249712367735 
1995	-24.4424297414017 
1996	-8.00850270065609 
1997	 0.720644709278258 
1998	 15.7133001170451 
1999	 22.7459081857782 
2000	 27.5783923660196 
2001	 24.8075841672294 
2002	 10.2521980529988 
2003	 3.87598790029215 
2004	-9.73551474243272 
2005	-14.1115740441909 
2006	-1.52534066537295 
2007	 10.7622624253999 
2008	 11.827969965218 
2009	 14.141005577587 
2010	 13.9049465733955 
2011	 1.58420906784594 
2012	-2.39167636687368 
2013	-1.396656162937 
2014	-2.96034216248039 
2015	-0.449083432428153 
2016	-2.19198251545354 
2017	-11.0680021117006 
2018	-9.46583915794342 
2019	-2.07839010795836 
2020	-4.32427612577873 
2021	 8.35293094972207 
2022	 15.4558942694736 
2023	 5.75835062286732 
2024	 1.92764443174879 
2025	-0.429993009498614 
2026	-8.23961211672005 
2027	-6.95947858562839 
2028	 3.94365364795803 
2029	 5.24151991401497 
2030	 5.21457463733789 
2031	 1.85820966659885 
2032	-11.5669111896476 
2033	-7.57888867920337 
2034	-14.198262164158 
2035	-1.67183937732067 
2036	 10.6521154760162 
2037	 8.82749651925774 
2038	 13.6472842381021 
2039	 1.08040170723107 
2040	-11.2767667071395 
2041	-12.2366832269851 
2042	-11.2285848706248 
2043	-2.23479355888541 
2044	 1.25338010245796 
2045	 5.89431070657129 
2046	 6.06777010658243 
2047	-3.76101533266562 
2048	-3.70382720716918 
2049	 1.05440588310941 
2050	 9.40671674503287 
2051	 13.9585035962073 
2052	 20.3456128402285 
2053	 12.0178750475723 
2054	 7.26621891041532 
2055	 12.4298909492417 
2056	 13.5832927280393 
2057	 15.7640755188585 
2058	 15.7369836472968 
2059	 12.1763056585964 
2060	-1.12098320216993 
2061	-8.41327328819463 
2062	-19.2624031699538 
2063	-18.1626824116338 
2064	-11.1781061693069 
2065	 2.21952598186939 
2066	 14.0469037480464 
2067	 22.2234146990525 
2068	 15.902439922101 
2069	-5.84755886888344 
2070	-16.6612992146869 
2071	-36.2070104153778 
2072	-45.87526882284 
2073	-37.5396956386773 
2074	-42.3302087304302 
2075	-25.8221123353492 
2076	-16.8611969916815 
2077	-10.179314024436 
2078	-4.72268147953824 
2079	-1.99686186540753 
2080	-3.33129112648412 
2081	-10.6965523467866 
2082	-2.37402117594384 
2083	-1.39747623191333 
2084	 11.5818119540182 
2085	 31.2934272710031 
2086	 23.769367568644 
2087	 14.4850419059532 
2088	 9.06836382465055 
2089	-6.75387384758409 
2090	-0.913552627747583 
2091	 6.00391432532074 
2092	 13.4813196606805 
2093	 28.0512291737089 
2094	 28.831581246979 
2095	 27.7790634518642 
2096	 20.6203302682669 
2097	 15.7874973378572 
2098	 7.81222315139659 
2099	 1.52924880325239 
2100	-7.34107215749383 
2101	-15.6586633376855 
2102	-27.5327310737971 
2103	-41.1259484724625 
2104	-40.0395794229059 
2105	-28.1925519145742 
2106	-21.6414576828765 
2107	-11.9224992056377 
2108	-1.22855548615016 
2109	 4.25034813960239 
2110	 16.1034345234362 
2111	 29.4677243233565 
2112	 24.1026900211796 
2113	 7.01466733228876 
2114	 2.02101598173505 
2115	-8.00619840639664 
2116	-8.89502030710512 
2117	 11.1535886274692 
2118	 16.1877918591798 
2119	 18.3803642635178 
2120	 8.46510696441267 
2121	-0.22703484414913 
2122	-10.041112777547 
2123	-23.6502982787322 
2124	-24.7926291847344 
2125	-27.168756709312 
2126	-26.8794314477408 
2127	-20.8635937808616 
2128	-20.1978532212637 
2129	-17.6864733311662 
2130	-12.8694325937298 
2131	-9.71130733741109 
2132	 2.53266087901734 
2133	 6.24028692923712 
2134	 3.58820645010833 
2135	 4.70183580394125 
2136	 0.440475101292602 
2137	-3.65311551891512 
2138	 1.02048613507799 
2139	-5.71967245566802 
2140	-24.311530514458 
2141	-25.8936823999256 
2142	-36.6562993412787 
2143	-44.8247662082109 
2144	-33.2769001880576 
2145	-33.0190115884762 
2146	-29.771353946819 
2147	-22.8070587805342 
2148	-28.4783376080766 
2149	-34.4692962341326 
2150	-40.4950233378138 
2151	-39.2370688055772 
2152	-32.4427982636088 
2153	-25.0640768751813 
2154	-11.8450986043966 
2155	-5.73001440920617 
2156	-2.71623389209938 
2157	 13.3370867034413 
2158	 19.4751212208951 
2159	 19.3008453146941 
2160	 19.9567528299719 
2161	 13.870694389178 
2162	 9.0005531124306 
2163	 1.99537800652279 
2164	 7.45619804797249 
2165	 10.2236599003033 
2166	 14.2002366172052 
2167	 16.0869336095641 
2168	 16.1519883392819 
2169	 15.4892999290503 
2170	 14.9202476651654 
2171	 12.597753418281 
2172	 1.41509717940528 
2173	-13.5747139609137 
2174	-25.1306222979301 
2175	-26.1261031500141 
2176	-18.2983996200795 
2177	-11.6392779331979 
2178	-13.299851002811 
2179	-18.9710720031287 
2180	-26.7890573036245 
2181	-30.078469688988 
2182	-22.1386497652773 
2183	-17.6973601954653 
2184	-10.6534358837858 
2185	-4.4112483224871 
2186	 0.927079339220257 
2187	 6.85280999405091 
2188	 14.1119053855375 
2189	 16.797579027157 
2190	 26.7746133056126 
2191	 25.8269455369655 
2192	 26.3443123036287 
2193	 26.1127221318363 
2194	 17.3703382052145 
2195	 17.6131580254468 
2196	 18.5025896121399 
2197	 22.201852499574 
2198	 32.3001976819813 
2199	 26.67452510808 
2200	 15.3369297159723 
2201	 9.52777482517646 
2202	-3.07302542820419 
2203	-5.77401492591357 
2204	-7.94784254930423 
2205	-15.2092261482344 
2206	-9.84866414758976 
2207	-2.23207680510977 
2208	 9.06275447403695 
2209	 24.0665779317556 
2210	 32.7324143840224 
2211	 32.1992899647906 
2212	 36.214270980066 
2213	 43.2444283416787 
2214	 45.753158614838 
2215	 50.254265276161 
2216	 49.0494463028543 
2217	 42.1961624517748 
2218	 31.6722525274143 
2219	 11.8962804003057 
2220	 2.88430838478602 
2221	-3.14334049807899 
2222	-11.2089127300336 
2223	-2.14578435204785 
2224	-3.76878515360556 
2225	-7.49434353585595 
2226	-4.92457129318043 
2227	-3.38415114728784 
2228	 5.44826822780169 
2229	 5.46483519514631 
2230	 6.84459314880088 
2231	 4.30665249842629 
2232	-4.51802290052956 
2233	-9.30342467091815 
2234	-18.5989067134848 
2235	-23.5160797935657 
2236	-28.7602175232882 
2237	-28.263259318564 
2238	-20.2445695612611 
2239	-12.9605504115072 
2240	-4.04478337649081 
2241	-1.02107154925621 
2242	 1.23312952415576 
2243	-0.796416577006344 
2244	-9.9292483201304 
2245	-14.0745991115903 
2246	-21.7271985016722 
2247	-23.7556727262615 
2248	-17.0810052488701 
2249	-16.9610864787871 
2250	-20.1130357232467 
2251	-21.5492903509868 
2252	-27.544043257274 
2253	-25.4436205187115 
2254	-13.6021526775886 
2255	-7.03034634123467 
2256	 3.54615136941282 
2257	 5.37279491191474 
2258	 0.500812454710851 
2259	-8.34506509590596 
2260	-11.6600775791799 
2261	-13.6107034390188 
2262	-15.6305680443309 
2263	-16.0768501539886 
2264	-20.5226125692288 
2265	-17.5795778890935 
2266	-21.7327369377011 
2267	-22.6066398815855 
2268	-17.3369628516659 
2269	-32.9977972556259 
2270	-34.3799879321054 
2271	-26.7724578864014 
2272	-27.2022574779752 
2273	-17.3913506446503 
2274	-12.4546485173017 
2275	-16.0680433277434 
2276	-19.0700472754863 
2277	-15.5608742104486 
2278	-13.5633155554933 
2279	-13.3212599126625 
2280	-6.17678080480776 
2281	-6.78433726951167 
2282	-4.82437044714384 
2283	 6.77546329361104 
2284	 9.47327241526424 
2285	 15.9648984540249 
2286	 16.4303987120335 
2287	 7.37725838979632 
2288	 5.67894517293883 
2289	 4.05836647754305 
2290	 2.26709905371388 
2291	 3.90032981816387 
2292	-0.313025695816982 
2293	-3.33470514036485 
2294	-9.21632264616033 
2295	-23.7428118616123 
2296	-24.1957470832882 
2297	-25.1316456042941 
2298	-19.8916233231674 
2299	 3.52041642152497 
2300	 12.4462602043732 
2301	 20.7683460157129 
2302	 20.82285646032 
2303	 6.70698563379362 
2304	-0.803453762948031 
2305	-15.7934198628064 
2306	-14.509564034915 
2307	 2.63278002048742 
2308	 8.44903395337323 
2309	 21.5487242356495 
2310	 23.4953462141697 
2311	 6.62763610718297 
2312	-3.38301067429918 
2313	-10.5717073501057 
2314	-15.8005833023557 
2315	-14.9453580571014 
2316	-12.6834899940067 
2317	-10.0327278002253 
2318	-7.09447225430807 
2319	-3.68803598483434 
2320	-2.86166390174934 
2321	-9.67975938131968 
2322	-17.3290358538456 
2323	-21.8082303709742 
2324	-26.2581529027875 
2325	-25.2437777671331 
2326	-19.6697289673842 
2327	-8.13596812347946 
2328	-0.125641916901535 
2329	 12.2544904613548 
2330	 24.0452014741467 
2331	 17.2892897261182 
2332	 13.8432307216331 
2333	 11.5568589756564 
2334	 2.47641455365599 
2335	 2.66407551197949 
2336	 4.44855179971179 
2337	-2.00317597506223 
2338	-2.56695484820178 
2339	-9.46803730531929 
2340	-22.388501458323 
2341	-22.619999022873 
2342	-26.3024127877203 
2343	-28.8104535161862 
2344	-12.7852986886881 
2345	-3.76498434831777 
2346	-9.50989066657658 
2347	-6.29669494614622 
2348	-8.37009428979411 
2349	-20.6532443507401 
2350	-16.2422164260224 
2351	-10.3983485740542 
2352	-13.6425245730625 
2353	-14.6399622378452 
2354	-16.7721868487944 
2355	-22.8521402249672 
2356	-28.9780151782451 
2357	-20.831405435659 
2358	-17.3671960101473 
2359	-16.4882930539623 
2360	-2.3059509539862 
2361	 4.5181707304375 
2362	 2.66332404182237 
2363	 1.83788654251707 
2364	-4.83023643319416 
2365	-15.431098653777 
2366	-15.7736735476314 
2367	-14.7021890034728 
2368	-6.60380261836419 
2369	 4.38432517814765 
2370	 13.9070732143469 
2371	 24.1541789709432 
2372	 21.7991057286186 
2373	 30.3700676417425 
2374	 33.8388701788793 
2375	 21.8569709958472 
2376	 27.2144017190757 
2377	 19.3727593429255 
2378	 8.71059832673131 
2379	 25.4599362886095 
2380	 27.3139200178279 
2381	 25.0346639744173 
2382	 36.3378160947352 
2383	 37.1947663125187 
2384	 33.734727022746 
2385	 27.3937664886991 
2386	 16.6447974296928 
2387	 2.86249260677505 
2388	-8.38797030474304 
2389	-16.0490920557664 
2390	-21.1765405874071 
2391	-20.6053895234985 
2392	-25.3333942176801 
2393	-17.6023246050029 
2394	-10.4061902851952 
2395	-13.9722179968872 
2396	-14.5884271726169 
2397	-21.1046118338001 
2398	-29.3930176900399 
2399	-44.239548769942 
2400	-43.9318374177571 
2401	-44.0791530220083 
2402	-56.6394804763244 
2403	-50.9986673400826 
2404	-46.4244498570841 
2405	-39.6737948528514 
2406	-26.9275324641386 
2407	-18.9364997353597 
2408	-15.7286088390685 
2409	-17.533029846694 
2410	-14.2283657418549 
2411	-11.1610894238733 
2412	-12.6614800737068 
2413	-8.65154987395536 
2414	-2.41985479773921 
2415	-8.00969447583126 
2416	-3.87698276701715 
2417	-1.3053652791441 
2418	-14.0760382025458 
2419	-9.10255870199859 
2420	-10.38796770532 
2421	-16.5404377907793 
2422	-15.8733084141521 
2423	-23.1492001914068 
2424	-30.2871621874112 
2425	-41.6861557900214 
2426	-48.2748990142812 
2427	-54.2082097386196 
2428	-58.2173907320156 
2429	-46.8011927682731 
2430	-35.5729654299492 
2431	-19.696690901898 
2432	-2.12388419752492 
2433	 1.70611533117354 
2434	 4.05227806095145 
2435	 0.571251839384184 
2436	-6.64519835353132 
2437	-13.2905700107039 
2438	-21.0832170274709 
2439	-21.457580994836 
2440	-25.2218961537358 
2441	-22.1026655005586 
2442	-19.9909989002539 
2443	-29.2733678228818 
2444	-35.5968618597026 
2445	-53.2318635854808 
2446	-66.5209138765608 
2447	-60.537769889045 
2448	-53.9731899042647 
2449	-35.1139695132111 
2450	-13.5379044619936 
2451	-14.9883265045113 
2452	-15.3653889998357 
2453	-9.07924949825101 
2454	-15.6029668729565 
2455	-17.8308281449399 
2456	-13.3021888016562 
2457	-23.7727427993607 
2458	-23.7204835579611 
2459	-9.39419969303501 
2460	 0.197892116515327 
2461	 9.90346872375359 
2462	 13.4362516051006 
2463	 16.2629115389152 
2464	 13.4147978133609 
2465	 12.1185889676709 
2466	 14.1363922782331 
2467	 20.8972677152454 
2468	 22.6161348094991 
2469	 19.0748697309085 
2470	 15.9981508048024 
2471	 3.1249069639884 
2472	-6.50740074237157E-02 
2473	-4.29200005980886 
2474	-7.57196997610502 
2475	 5.77904450743116 
2476	 3.93125243250258 
2477	 1.73882977427526 
2478	 4.45872732707414 
2479	-12.7786265072004 
2480	-14.1705406800091 
2481	-7.55189156667027 
2482	-9.05123277931794 
2483	-7.52136529217182 
2484	-9.51320101460286 
2485	-8.53539813217675 
2486	-2.78401485059551 
2487	 5.15946017934033 
2488	 8.83162154340107 
2489	 10.3396312570789 
2490	 8.43717142147321 
2491	 10.016090246221 
2492	 15.4248171396445 
2493	 16.0401832645444 
2494	 22.0296571240816 
2495	 13.8720312935898 
2496	 0.475510238028468 
2497	-13.264444369514 
2498	-24.7180708355287 
2499	-16.9416541245196 
2500	-13.0603399925071 
