Wavelength	3mm_BlackABS00000.asd
350	 7.23205530214548E-02 
351	-0.403083109586349 
352	-0.461506016676882 
353	 0.436363533365996 
354	 1.53073209565439 
355	 1.70535950195311 
356	 0.650740486059621 
357	 0.435608518470615 
358	 0.440689998603641 
359	 0.505062072244983 
360	 0.821168565902774 
361	 1.69741118772107 
362	 1.88881769481982 
363	 0.568796144571687 
364	 0.113627097103529 
365	-0.088880717498314 
366	-0.331242404147244 
367	-0.393408764504956 
368	-0.511930592926909 
369	-0.55084658819799 
370	-0.320594215456982 
371	-0.178538527716548 
372	 0.241154152668214 
373	 0.796380820808143 
374	 0.163785747403293 
375	-0.583805586357981 
376	-0.745392553051709 
377	 5.71502815007505E-02 
378	-0.33375047647808 
379	-0.305787248877847 
380	 0.996775646953392 
381	 0.455836654684319 
382	-7.56815150822179E-02 
383	-0.121182319764775 
384	-0.327709374903864 
385	 0.430627561652669 
386	 1.06564884101 
387	 0.472498724026596 
388	 0.254512941054282 
389	 0.16722482425996 
390	 0.319596093991969 
391	 1.71958526108353 
392	 0.886073686019385 
393	-0.66932639786752 
394	 0.305118045935924 
395	 1.81205858596106 
396	 1.62506236896979 
397	-0.566400653466615 
398	-0.213593235229427 
399	 0.462618062995062 
400	 0.82625142416776 
401	 1.30319338017791 
402	 1.45683343088671 
403	 0.753747786236097 
404	-0.733515494552662 
405	-0.184684886687867 
406	 0.406508308134082 
407	 0.227852395169412 
408	 0.603770702953832 
409	-0.389958122530635 
410	-1.58692873318416 
411	-0.877602837473259 
412	-1.46236006654994 
413	-1.01678997925731 
414	 1.50746398317249 
415	 1.73402929585955 
416	 0.627167728849712 
417	-0.692658948654388 
418	-0.830887421073945 
419	-1.31450276300315 
420	-0.68122778494749 
421	 2.16191233308966 
422	 1.75080749193257 
423	 1.07365127310166 
424	 1.57071538963773 
425	 0.691216831686183 
426	 4.41836562751949E-02 
427	 0.292419033570856 
428	 1.53914241779349 
429	 1.48462918063091 
430	 0.895606746836328 
431	 0.83633177573089 
432	 1.23187831565177 
433	 0.703579279254767 
434	-0.388387587217252 
435	 0.691430175572294 
436	 0.940264778590033 
437	 0.631513961982645 
438	 1.10065374709569 
439	 1.61738062800602 
440	 1.0769150660957 
441	-0.478794235279642 
442	 0.281139230484584 
443	 0.890075832138349 
444	 0.387342279728711 
445	-0.949763308799334 
446	-1.9912337696476 
447	-1.7935699541853 
448	-4.17444016779646E-02 
449	 0.635937385562527 
450	 0.457420297826057 
451	 3.48053351238665E-02 
452	 0.329928971664215 
453	 0.436422246783508 
454	-7.16794016714974E-02 
455	-1.2793340898822 
456	-0.98505341628942 
457	-0.230342602469356 
458	-0.214195634858362 
459	 1.51449672706597 
460	 2.3960184471958 
461	 1.24534237768074 
462	-0.717242389186922 
463	-1.11635388217013 
464	-0.693294819249753 
465	-1.84296730569195 
466	-1.20781761554872 
467	-0.173551200617729 
468	-0.323403762462861 
469	-0.065019265515339 
470	 0.106495037983339 
471	-3.59027354812225E-02 
472	-0.268285763249538 
473	-0.3058673833676 
474	-0.403981361971335 
475	-1.03765710660458 
476	-1.53208062582742 
477	-2.02217326307658 
478	-2.34574248062008 
479	-0.543580467262923 
480	 1.10443466578916 
481	 1.1473004094062 
482	-1.10323392396916 
483	-0.921104697286681 
484	 0.759525985711063 
485	 0.612031617249472 
486	-0.144759128295864 
487	-0.249368804964389 
488	 0.607154633879046 
489	-0.606647912152857 
490	-2.37746082136616 
491	-3.3232568138803 
492	-2.0386514805363 
493	-0.805094601523114 
494	-0.10342504420222 
495	 0.34774638637309 
496	 1.04725009527157 
497	 0.763350549448646 
498	-1.06421999930192 
499	-2.17178024213637 
500	-2.05717450085146 
501	-0.899189545639802 
502	 0.356346270399742 
503	 0.602089150362427 
504	-1.53766929104033E-02 
505	-0.736252795103343 
506	-1.80030638761301 
507	-1.7099568329285 
508	 7.50423540206397E-02 
509	 0.255626695368192 
510	-0.439680920793503 
511	-1.3061200509329 
512	-1.68299201109307 
513	-1.46089237718761 
514	-1.19695707255768 
515	-1.62963809680593 
516	-0.69880966375484 
517	-0.550526931475747 
518	-2.46442752699512 
519	-2.03595952107853 
520	-2.09051945422672 
521	-2.84057146316653 
522	-0.240309667436926 
523	-7.14885567953233E-02 
524	-1.41387265023148 
525	-0.518741764684274 
526	-1.17083742627196 
527	-2.0106939521543 
528	-1.65376497302628 
529	-2.53332679734905 
530	-2.3306676352551 
531	-0.651892459234884 
532	-0.262501371433603 
533	-0.959416590333972 
534	-1.78022455107454 
535	-1.2748008530937 
536	-1.81190901734051 
537	-2.24498020760277 
538	-1.3307147912948 
539	-0.606955446066392 
540	-0.855055809533667 
541	-1.98523455122825 
542	-2.62603631136101 
543	-1.41319854009351 
544	 0.320464874198337 
545	-0.555829176939863 
546	-1.82946675754829 
547	-2.38514305028355 
548	-1.78778735176804 
549	-1.96969841581287 
550	-1.89296915237658 
551	-1.27827834370513 
552	-2.04282311427855 
553	-1.78545635562062 
554	-0.921278294689622 
555	-1.93445156401796 
556	-3.00117247732336 
557	-2.81526640974177 
558	-0.940092704319329 
559	-1.96081513756313 
560	-2.24569384309832 
561	-0.198140752329904 
562	-1.2102126691872 
563	-2.10864487473801 
564	-1.81546039180854 
565	-0.909006042051035 
566	-1.36887468828856 
567	-1.94864753558389 
568	-0.761887391121889 
569	-1.40651431608363 
570	-2.52105784815871 
571	-2.63863859744894 
572	-1.69067976902446 
573	-1.29568996138542 
574	-1.37564687341481 
575	 0.353496404709047 
576	 0.360443370912804 
577	-1.10274656507721 
578	-2.12865327848639 
579	-1.32751702255488 
580	-0.620795152445443 
581	-1.48965994747236 
582	-1.53564610773507 
583	-1.86047208546065 
584	-2.61458143661039 
585	-2.4034246091871 
586	-1.24906185737827 
587	-0.754028234785889 
588	-3.19805750644987 
589	-2.94727340390315 
590	-1.71213912323488 
591	-2.0408689102144 
592	-2.61962399858391 
593	-2.12632504511797 
594	-0.567830185358606 
595	-0.52516105225548 
596	-0.484220729803009 
597	-0.827281157181349 
598	-3.0430150183646 
599	-2.33655268309525 
600	-0.998311306722026 
601	-2.12903538992293 
602	-0.608016891488317 
603	 0.654084916007324 
604	-0.298158009976023 
605	-1.88441755778566 
606	-3.04047722728749 
607	-2.86488905629912 
608	-0.506102472067137 
609	-3.95608488238295E-02 
610	-0.55453428931596 
611	 9.45035100553744E-02 
612	-2.00287113107207 
613	-3.68626599926582 
614	-2.67036484651119 
615	-1.64804264719529 
616	-1.18702221213873 
617	-1.37754898808946 
618	-1.73255917378571 
619	-2.30336994819663 
620	-3.02587031802551 
621	-3.72761403476534 
622	-3.41430829501426 
623	-2.32521154045148 
624	-1.20825660897155 
625	-1.91722258300125 
626	-2.15752665606099 
627	-1.44842664468871 
628	-2.61442299799487 
629	-2.49685510660613 
630	-1.14528340252673 
631	-0.307215845344198 
632	-0.072288450196064 
633	-1.15589577683381 
634	-3.39854901798546 
635	-1.9085510582443 
636	-0.703004823592252 
637	-1.58070768048072 
638	-0.729888850521185 
639	-0.882421506291414 
640	-2.0924716191048 
641	-2.5915398172201 
642	-2.88144328522815 
643	-2.36883498692477 
644	-0.666338491507448 
645	-0.26345796457643 
646	-0.85707637901273 
647	-1.90412393826842 
648	-3.29048965218374 
649	-3.18648456080844 
650	-2.08534144821678 
651	-2.92127579703912 
652	-1.65634553931194 
653	-0.148923410127001 
654	-1.71791139423546 
655	-2.26579945147564 
656	-2.25413079277028 
657	-2.36995790410137 
658	-1.90578769041871 
659	-1.53669954701418 
660	-1.76408362754208 
661	-3.09694081639613 
662	-2.7348739491242 
663	-1.51840752882348 
664	-1.8163386803377 
665	-2.00012137263405 
666	-1.89567662498283 
667	-1.70754978167849 
668	-2.19184907609785 
669	-2.65995140572709 
670	-2.78081639059753 
671	-2.91816164963684 
672	-1.8993698829703 
673	-0.971718892814321 
674	-2.54499396728043 
675	-1.39390843391422 
676	-0.3668129772816 
677	-2.55967873433332 
678	-3.41007945452072 
679	-2.677250679261 
680	-1.3252872634163 
681	-2.45892962080705 
682	-3.01222132988647 
683	-2.59153813915992 
684	-2.44805936152478 
685	-1.30346490939687 
686	-0.810964375865371 
687	-2.57223125295256 
688	-3.25783403331048 
689	-3.34826561897676 
690	-3.42067951232604 
691	-3.54850473671513 
692	-3.57901961500003 
693	-2.94588294097503 
694	-0.661276180864836 
695	-1.52102453599722 
696	-3.93250274532238 
697	-4.52657659770965 
698	-3.41098449785847 
699	-2.88456586593557 
700	-3.70249046223153 
701	-1.70695827354037 
702	-0.545743838667396 
703	-1.10708694916341 
704	-1.73709263347767 
705	-1.47869655782742 
706	-1.43964965671617 
707	-3.03753924492404 
708	-2.55126183525341 
709	-1.51325445951397 
710	-1.49704540706374 
711	-2.31379484348161 
712	-2.70331453535647 
713	-2.32228428530998 
714	-1.79365782304516 
715	-2.05421749023926 
716	-2.77423094968462 
717	-2.99080148906369 
718	-1.3213344663821 
719	-0.831681709912177 
720	-3.05246314847833 
721	-2.50947190490236 
722	-1.87808344182379 
723	-2.17691461631084 
724	-2.40553757670268 
725	-2.57317415930579 
726	-2.81726565713931 
727	-3.22802219555013 
728	-2.06716901150675 
729	-1.22455635423422 
730	-1.99754137427996 
731	-1.59501310473675 
732	-1.85782792876995 
733	-2.86752133888818 
734	-2.21561012355987 
735	-2.00429231223522 
736	-2.05185747466956 
737	-1.37195004026123 
738	-1.04294776107148 
739	-1.77675988017372 
740	-3.27569156220733 
741	-1.77689413836013 
742	-1.39187873700466 
743	-2.65146717665018 
744	-1.01636515232381 
745	-0.234186465706794 
746	-0.96746608888811 
747	-2.42150058745522 
748	-1.51860576421255 
749	-1.06359236518542 
750	-2.99560292682781 
751	-2.89180567247882 
752	-2.35121630745684 
753	-2.32804906410793 
754	-3.00771950002512 
755	-3.24313714439675 
756	-2.93815120516077 
757	-2.45774789330385 
758	-1.80416276385675 
759	-1.42021634616725 
760	-1.7665602953301 
761	-3.66707122924894 
762	-3.3879123343978 
763	-0.980873864509018 
764	-1.02477080676346 
765	-2.74756737385864 
766	-3.43415776157089 
767	-0.337069229419674 
768	-0.492708706337506 
769	-1.36445801957771 
770	-0.789635064400423 
771	-1.51778162535025 
772	-3.02814215817807 
773	-3.9244309288687 
774	-1.6645799101804 
775	-1.44099022166261 
776	-2.4977392947464 
777	-2.32611015315487 
778	-1.80977211613289 
779	-1.81342942127199 
780	-2.33736646198875 
781	-1.00178053252307 
782	-0.530559209189347 
783	-1.22996048168658 
784	-1.44729458782938 
785	-0.666088911377951 
786	-0.378326817209539 
787	-1.86733891568572 
788	-1.27049587237284 
789	-0.329127879383218 
790	-0.354974846113289 
791	-1.04368171281391 
792	-1.86613202740399 
793	-2.92027076413012 
794	-4.59335826715956 
795	-3.68953423987815 
796	-2.39228963788489 
797	-2.92277202558323 
798	-1.98038811195557 
799	-0.125726771995489 
800	 1.02111210156 
801	-2.25378794619569 
802	-2.47353725797215 
803	-1.18441980032299 
804	-3.4998425840593 
805	-2.84489871061869 
806	-1.90798934594584 
807	-3.1226506861016 
808	-3.60181603886342 
809	-2.33796989015239 
810	-0.695041319392353 
811	-2.81226725054672 
812	-2.71641727724 
813	-1.39363894888542 
814	-1.69896802888065 
815	-2.2725176063442 
816	-1.71769118019122 
817	-0.204698935342422 
818	-1.7059769195304 
819	-2.15813277192352 
820	-0.973777064190716 
821	 0.12110577168764 
822	-0.757800187478619 
823	-1.88344648499742 
824	-1.50313716472673 
825	-1.777293277795 
826	-2.08969753593524 
827	-2.02040322156423 
828	-1.44890129015324 
829	-1.84016865594129 
830	-2.76886831369947 
831	-3.0531085554847 
832	-2.8996842841186 
833	-2.4140796849862 
834	-1.90392821872487 
835	-2.32428429935069 
836	-2.16453174564913 
837	-1.55238283338199 
838	-1.90121909582411 
839	-1.53341340516127 
840	-1.16486395625612 
841	-1.51848407918079 
842	-0.28908492600056 
843	 0.375614632099946 
844	-0.323094617372863 
845	-0.926884012050997 
846	-1.324777304005 
847	-1.90779706170312 
848	-3.04769459871408 
849	-1.98901510735076 
850	-1.05232541100128 
851	-1.76287773817471 
852	-2.12301008918794 
853	-1.66196218381725 
854	-1.15222246386955 
855	-2.29360473760173 
856	-2.7512752738589 
857	-2.4132224080105 
858	-1.83975076698633 
859	-2.05070525776559 
860	-2.48653406425298 
861	-2.84362370008464 
862	-3.25182268384153 
863	-2.10453184635078 
864	-0.932884330496879 
865	-1.73959997519588 
866	-1.2107169871347 
867	-1.07818885005634 
868	-2.18811531009527 
869	-2.96602170942878 
870	-2.04899213656137 
871	-0.748681949969851 
872	-1.60863411477664 
873	-1.598328766925 
874	-0.942965742750735 
875	-0.593920860877154 
876	-2.42706165633388 
877	-2.37703252844827 
878	-0.283338189583807 
879	 0.796933326845764 
880	-0.71541459546229 
881	-2.53458342674317 
882	-2.32426111906037 
883	-1.62682164162962 
884	-1.58578609328337 
885	-2.30712342936905 
886	-2.72013313451939 
887	-2.39838315026657 
888	-2.39890317673485 
889	-3.51557457875403 
890	-1.97894321993622 
891	-1.0361900477614 
892	-1.65030805679016 
893	-0.342133304924608 
894	-1.39388956398439 
895	-3.20557199448338 
896	-2.41257530790481 
897	-1.13485673755138 
898	-0.615707962835 
899	-1.06458688421372 
900	-0.676471220158662 
901	-1.74871415629938 
902	-3.14075176521441 
903	-2.37189116641643 
904	-1.6420699370419 
905	-1.19050745703648 
906	-1.06628399792872 
907	-1.64181891109535 
908	-1.73149462210545 
909	-1.53531369289678 
910	-2.02827451149602 
911	-2.68019397052664 
912	-3.08553721546877 
913	-2.90658875281554 
914	-1.86926812454651 
915	-0.421665698488431 
916	 0.529673775242017 
917	-0.157296678415043 
918	-1.86432708870517 
919	-3.18325929691317 
920	-3.24238460438422 
921	-3.13867141921676 
922	-2.04325989492025 
923	-0.779239821041169 
924	-1.27269824476062 
925	-2.22454307412505 
926	-2.60889282127806 
927	-1.9478675061728 
928	-1.06354544987767 
929	-0.974187621639391 
930	-1.3001911357285 
931	-0.700261985275479 
932	-1.17115177895402 
933	-1.95435393789933 
934	-2.08434778782967 
935	-1.50843433261851 
936	-1.06291666349038 
937	-1.35976819770931 
938	-2.66037399792059 
939	-2.53810836006091 
940	-1.47429982027291 
941	-0.648721163807799 
942	-1.79706467494145 
943	-1.51640334673815 
944	-0.397178844109858 
945	-1.40421292721201 
946	-2.16459401569733 
947	-2.77474536074293 
948	-3.13528501407566 
949	-1.39728596956019 
950	-1.00329371595064 
951	-1.65646037382711 
952	-1.21345746722746 
953	-1.48184701592488 
954	-1.55350110974005 
955	-1.07574137177836 
956	-1.68749286356898 
957	-1.38736925363984 
958	-1.01688374570392 
959	-2.18204559684709 
960	-2.39842575483634 
961	-1.97995410722415 
962	-1.12828801986513 
963	 0.760747410146419 
964	 0.60526317164508 
965	-0.781752626283696 
966	-7.3307595675002 
967	-2.50141107516185 
968	 1.62581564331554 
969	 2.4283582697126 
970	 3.29625393379809 
971	 2.56158124206081 
972	-4.38209246201669 
973	-5.73890945057693 
974	-2.57289736423299 
975	-3.4673412822098 
976	-6.70675329239862 
977	-5.43098054848398 
978	-6.08597021907383 
979	-5.70879615638539 
980	-0.158227444561033 
981	 2.3051473738242 
982	 1.03305087385169 
983	-1.14412998015522 
984	-3.17133878980457 
985	-5.21588253304743 
986	-5.78862348784383 
987	-3.26791318784587 
988	-1.82379570513296 
989	-0.673784237639285 
990	 0.528273822143556 
991	 2.13640535413953 
992	 2.94103581445109 
993	 4.60370571307543 
994	 2.63381862309259 
995	 7.00794840525976E-03 
996	-2.3581097917064 
997	-5.57790693793288 
998	-6.12553452522557 
999	-5.00184936679768 
1000	-4.44489626134695 
1001	-7.55008949331686 
1002	-7.02922778110182 
1003	-3.71527971899571 
1004	-4.65644255006559 
1005	-3.61332805611687 
1006	 1.44662101142642 
1007	 1.55049147025556 
1008	-2.12415095278031 
1009	-2.0263325975376 
1010	-2.39249365806439 
1011	-6.03045637212726 
1012	-5.0675019584724 
1013	-2.59790936857653 
1014	-3.96970265763101 
1015	-2.56548285243949 
1016	-1.19436901161438 
1017	-1.30641425348546 
1018	-1.25935778742037 
1019	-2.89758464988398 
1020	-4.64699357844835 
1021	-7.12234149614802 
1022	-8.04238534206341 
1023	-7.86057847813262 
1024	-5.77853867379717 
1025	-3.97763651678936 
1026	-2.55527835989659 
1027	-2.82591793143148 
1028	-3.2238581552155 
1029	-2.00370809743154 
1030	 0.157937403629776 
1031	 0.99996434025932 
1032	 0.110431183879207 
1033	-2.04562683647169 
1034	-4.41271143454966 
1035	-4.82284965219583 
1036	-1.99154246298238 
1037	-0.427914613086789 
1038	-1.43942532371347 
1039	-2.35432483647669 
1040	-3.40843034018345 
1041	-5.35022880131036 
1042	-6.23587814703865 
1043	-7.04030300731112 
1044	-6.62787833964816 
1045	-7.15950811359913 
1046	-8.25282430392635 
1047	-4.91208421819635 
1048	-5.49558815693308 
1049	-6.91458255571687 
1050	-3.92676321219056 
1051	-2.50857242274849 
1052	-2.09794134443897 
1053	-0.78749904341727 
1054	-2.00318643117164 
1055	-7.15661725480585 
1056	-8.29511201080495 
1057	-7.93763562962118 
1058	-4.90039160124085 
1059	-3.68538583374307 
1060	 0.882463208777695 
1061	 0.37701875927353 
1062	-5.1600538999385 
1063	-7.04484738271525 
1064	-4.13939609253702 
1065	-2.7507866102881 
1066	 0.490244742781687 
1067	 3.59743951415228 
1068	-0.355039561088685 
1069	-4.97092434026344 
1070	-3.71193074823015 
1071	-2.15670335347786 
1072	-0.489146858778323 
1073	 2.44567597479257 
1074	 3.90414995676971 
1075	 3.89390184038267 
1076	 3.90986099959137 
1077	 3.7184280644491 
1078	 3.56802537731668 
1079	 2.37615364201382 
1080	 1.04788050966826 
1081	 0.227432006853382 
1082	-1.06935818558033 
1083	-4.21205036449197 
1084	-4.84210323558602 
1085	-5.88544680109006 
1086	-6.5021473552446 
1087	-4.85244606223665 
1088	-4.52716783881359 
1089	-2.16332659302274 
1090	 0.156094753226012 
1091	 0.206951129164759 
1092	-1.56419474389427 
1093	-2.0365854688708 
1094	-4.34973424301876 
1095	-3.502144975042 
1096	 1.14549893624898 
1097	 1.45784746934303 
1098	 0.734022959130967 
1099	 0.108372637412997 
1100	-4.60434522144231 
1101	-5.49183739524001 
1102	-1.86627071655613 
1103	-1.60587206638945 
1104	-2.47945020659395 
1105	-2.50916426021151 
1106	-2.96505314812281 
1107	-3.29881076101357 
1108	-2.57000473404277 
1109	-0.337656407908894 
1110	-0.316059419254834 
1111	-1.71327857118595 
1112	-3.07558852818746 
1113	-6.00174138988709 
1114	-6.3866631694345 
1115	-5.4311779302343 
1116	-5.94175684550217 
1117	-6.13676043077478 
1118	-5.82369296178587 
1119	-6.34883401612733 
1120	-6.37420798613063 
1121	-4.62129296364711 
1122	-3.99794113869877 
1123	-6.09676096846076 
1124	-5.32725483637304 
1125	-2.10739235457203 
1126	 0.683447859951966 
1127	 0.852679429592824 
1128	 1.31231403958065 
1129	 0.632967050179934 
1130	-4.06444318549297 
1131	-4.58142137126708 
1132	-2.56187735537974 
1133	-2.05432958055045 
1134	-1.35758872318207 
1135	-0.55172875025228 
1136	 1.12526246463047 
1137	 0.725331531775585 
1138	-1.12633797635733 
1139	-1.77539144967983 
1140	-3.351688035908 
1141	-4.63068807217808 
1142	-4.91673003867557 
1143	-5.11897947527179 
1144	-6.57995783659167 
1145	-6.61886753086958 
1146	-4.62366120787224 
1147	-3.32488846629561 
1148	-1.99507748933768 
1149	-0.106282778150296 
1150	 0.410412484765716 
1151	 7.08404469174869E-02 
1152	 6.90083370094111E-02 
1153	-0.337772880825563 
1154	-0.86729210443289 
1155	-1.30904468465485 
1156	-1.92482389931902 
1157	-3.81887607184584 
1158	-3.7778225356908 
1159	-2.04114249988819 
1160	-1.86498552530201 
1161	-1.39288299984068 
1162	-1.42143854980237 
1163	-4.229999695024 
1164	-3.77850772634471 
1165	 0.516540107439402 
1166	 1.78874830327549 
1167	 4.60510267354667 
1168	 4.11248796401793 
1169	 1.06201870628805 
1170	-3.33224251997063 
1171	-6.39856618646961 
1172	-11.1345558926191 
1173	-11.219355516227 
1174	-8.29433105372092 
1175	-7.48939146465703 
1176	-4.19595381266829 
1177	-3.21112937360879 
1178	-4.47292553549612 
1179	-5.49775541754241 
1180	-8.19096408628996 
1181	-7.49122825859088 
1182	-5.37040387071615 
1183	-4.04892621603686 
1184	 1.61839648706557 
1185	 2.63360759052586 
1186	-1.34147922251262 
1187	-2.7545898183492 
1188	-6.99454951062232 
1189	-7.23042312478134 
1190	-2.87021763747789 
1191	 0.170543314070063 
1192	 1.92440196223144 
1193	 3.70561244857573 
1194	 1.57137855867142 
1195	 0.187330103377001 
1196	-1.35689174473221 
1197	-3.43533531558569 
1198	-3.67500413715701 
1199	-3.31195976342506 
1200	-3.62201642949494 
1201	-2.39603787042069 
1202	-1.50157144720083 
1203	-1.20491863596971 
1204	-1.65060116864964 
1205	-2.03376831161781 
1206	-2.61954610042753 
1207	-5.31948849195157 
1208	-5.83431859052056 
1209	-4.75734059015158 
1210	-3.71249396717786 
1211	-1.48567097427958 
1212	 0.210300788608987 
1213	-0.587529579321585 
1214	-0.112962381300763 
1215	-1.57199294341636 
1216	-3.60096864875877 
1217	-0.515124124775039 
1218	 0.924922411024535 
1219	 2.24129065105606 
1220	 4.38202411275833 
1221	 4.84271389340528 
1222	 3.85815405069593 
1223	 2.68153498847264 
1224	 1.02510247054064 
1225	-0.52711315002303 
1226	-4.55238193721633 
1227	-5.79589160562101 
1228	-5.42502197649367 
1229	-5.08953603168465 
1230	-2.03959373727714 
1231	-1.4892890356276 
1232	-3.33972948817293 
1233	-3.03643543544062 
1234	-2.37447593975611 
1235	-1.9124400024715 
1236	-2.52431806189296E-02 
1237	 1.63596224471158 
1238	 0.488242483331242 
1239	-1.09686072472566 
1240	 0.651633358157973 
1241	 1.82807520464234 
1242	 0.512926650461664 
1243	-1.81433154490198 
1244	-6.45187952029604 
1245	-10.9060806807491 
1246	-9.29789342215638 
1247	-5.17254762634754 
1248	-1.61195295560268 
1249	 0.675499616734504 
1250	 2.20528329882495 
1251	 1.47789142591957 
1252	 1.6283266153546 
1253	 2.76116210598161 
1254	 3.55394273751708 
1255	 3.69536531257245 
1256	 3.21441081191141 
1257	 1.73516994867572 
1258	-0.17818190251667 
1259	-3.34853736790109 
1260	-4.35641418586097 
1261	-4.90233536715016 
1262	-4.0995303270829 
1263	-0.891551408639675 
1264	 1.00979499659489 
1265	 2.24131988568262 
1266	 4.48672581850402 
1267	 2.86124783726117 
1268	 0.153835554369325 
1269	-3.15520966064767 
1270	-6.52589622796034 
1271	-8.2796093276155 
1272	-8.97956998038267 
1273	-6.69672627300306 
1274	-4.50110108445678 
1275	-3.73571317668646 
1276	-2.51568053678017 
1277	-2.71260595237262 
1278	-5.54772996750646 
1279	-5.51645580543098 
1280	-3.0472906723074 
1281	-2.56920892815252 
1282	-1.78874516088438 
1283	-0.171186529054318 
1284	 0.320042318600278 
1285	 2.20108790752458 
1286	 6.08097078880354 
1287	 6.471683162791 
1288	 5.99056274636999 
1289	 5.19752399402791 
1290	 1.18462268263855 
1291	 2.85454578743406 
1292	 3.14159168963661 
1293	 1.68071981449309 
1294	 0.803739561152615 
1295	-2.23580160471742 
1296	-2.90663751646771 
1297	-4.23868431854206 
1298	-3.89999151632048 
1299	-1.97696858824437 
1300	-2.67016085863574 
1301	-3.75258504122813 
1302	-3.08922317307249 
1303	-1.44008084977897 
1304	 0.388367998157179 
1305	 3.70469144468158 
1306	 3.9496533783956 
1307	 2.0300687502765 
1308	 0.496906963514048 
1309	 0.702278476218889 
1310	 2.62491529036975 
1311	 2.08556727290261 
1312	 0.852312343120146 
1313	-1.44394330200402 
1314	-3.0700092115984 
1315	-6.1044304094155 
1316	-7.43547071446693 
1317	-7.27229163284907 
1318	-7.76490963383321 
1319	-8.95815700431964 
1320	-8.3098264774616 
1321	-6.13274385197816 
1322	-2.19904868671998 
1323	 1.8048951395188 
1324	 3.19759620952776 
1325	 2.16256929061508 
1326	 0.706273950672106 
1327	 0.901859544305715 
1328	 3.3197186375859 
1329	 4.63869751246122 
1330	 4.74250468008916 
1331	 1.37176582190391 
1332	-3.70810897521286 
1333	-2.56324921436486 
1334	-0.680813615586596 
1335	 1.67903943410816 
1336	 3.6007660348389 
1337	 0.501087313379742 
1338	-1.2935114168429 
1339	-2.4745029055001 
1340	-3.02162381817895 
1341	-0.576834537414189 
1342	 0.534650069311222 
1343	-1.22129712966505 
1344	-0.727689107221332 
1345	-3.00698283522667 
1346	-8.93382622559614 
1347	-10.1743132148296 
1348	-9.78165098532873 
1349	-8.34214315754737 
1350	-1.01097751578881 
1351	 1.27311495832708 
1352	 1.96292403066685 
1353	 1.7868647811588 
1354	-1.53800981699595 
1355	-3.43077647130682 
1356	-2.43152480921598 
1357	-1.28862814649255 
1358	-1.21519568918869 
1359	-1.50638627775629 
1360	-2.26520147304324 
1361	-3.49462730267609 
1362	-2.37796334318762 
1363	-1.62039204118544 
1364	-2.85273812006732 
1365	-2.56401651804977 
1366	-2.56823483641486 
1367	-2.25292047757694 
1368	-0.547046507015361 
1369	-1.90635486679027 
1370	-2.09550155981944 
1371	-1.09780995640306 
1372	-1.11159853664663 
1373	 0.94628674858248 
1374	 1.50852124811017 
1375	 0.304611877228401 
1376	-1.67883535061616 
1377	-2.2868191533762 
1378	-0.731117013303452 
1379	-1.60347251979775 
1380	-1.93701607959567 
1381	-1.39253102059675 
1382	-2.69483955905944 
1383	-3.75740137602992 
1384	-5.12218645855868 
1385	-7.96047858201713 
1386	-9.11551979813447 
1387	-7.69549014318138 
1388	-4.78664269529451 
1389	-0.988044351990786 
1390	 0.263416181872447 
1391	-1.51664614200604 
1392	-1.70040649707031 
1393	-2.62406237165296 
1394	-2.31752645571129 
1395	-3.62393905374683E-02 
1396	-1.56726941644675 
1397	-2.92853930434454 
1398	-5.2099820244247 
1399	-7.06034338388011 
1400	-4.15297063878523 
1401	-1.90052618017579 
1402	-3.00554231993323E-02 
1403	-0.254063937978158 
1404	-3.21360865858786 
1405	-3.71272980909076 
1406	-5.16084387432492 
1407	-7.11157599158237 
1408	-6.31387199894505 
1409	-6.44039339436268 
1410	-6.62917791348493 
1411	-5.10276602981177 
1412	-2.9948826937437 
1413	-2.46484584805144 
1414	-2.00345064063939 
1415	-0.403572550193699 
1416	-2.43419699261874 
1417	-3.15006850282183 
1418	-3.49955518241565 
1419	-8.11988248918376 
1420	-7.15784795476066 
1421	-3.91949097254722 
1422	-3.60989716200669 
1423	-0.928686226727991 
1424	-0.820328170149638 
1425	-5.9558402733862 
1426	-8.59275899182784 
1427	-8.41397498848042 
1428	-8.00406407250034 
1429	-5.68082859420529 
1430	-3.78426437431014 
1431	-4.42951147797501 
1432	-6.68734121658268 
1433	-7.11925239855627 
1434	-6.68392285253651 
1435	-5.11627593435671 
1436	-3.85958072883792 
1437	-5.27496480613962 
1438	-3.77171270280402 
1439	-4.39567805330787 
1440	-4.99497248228039 
1441	-2.06039079333076 
1442	-2.40126906747066 
1443	-2.32782052185789 
1444	-0.376824150972806 
1445	 0.569330435011604 
1446	 0.495135335392312 
1447	 0.395310404146894 
1448	-1.47362812915118E-03 
1449	 0.24572582606918 
1450	 0.237720044942719 
1451	 0.355913910500614 
1452	 1.17690875195283 
1453	 2.20802122811617 
1454	 1.24024950206881 
1455	 1.97462994952514 
1456	 3.51292309028823 
1457	 1.08405482228342 
1458	-1.3472428015276 
1459	-3.63103566473888 
1460	-6.10354060180638 
1461	-4.16140021731777 
1462	-1.05358447409095 
1463	-0.659398163745476 
1464	-1.51660778185222 
1465	-4.37820314867497 
1466	-9.14557584460278 
1467	-12.4277851976585 
1468	-10.4914404376888 
1469	-6.97191692306176 
1470	-4.08972480496405 
1471	 0.758751672299917 
1472	 1.62919817730367 
1473	-0.243370765840163 
1474	-1.04851950420721 
1475	-1.05557545653483 
1476	-0.247564486208509 
1477	-1.74090676386681 
1478	-3.12596759452551 
1479	-3.0720862178919 
1480	-2.09461040002441 
1481	-1.34052981117958 
1482	-0.778840234485682 
1483	 0.943021501778989 
1484	-2.06067595949331 
1485	-4.60825159252119 
1486	-3.79405682140349 
1487	-5.73710276453593 
1488	-4.04525264079897 
1489	 0.350667269379352 
1490	 1.57960963680885 
1491	 3.34377247060078 
1492	 4.8250823808124 
1493	 2.19943991454519 
1494	-1.73949246007723 
1495	-5.48651245126504 
1496	-9.09528367992446 
1497	-11.1967207758552 
1498	-9.11003877590907 
1499	-5.41873525806478 
1500	-4.13980230613098 
1501	-1.66524364298937 
1502	-0.822422067466279 
1503	-2.85682574041159E-02 
1504	 3.11399554042632 
1505	 1.53011356097292 
1506	 0.773461170007701 
1507	 3.32576402642453 
1508	 2.33430801570039 
1509	 0.914285431413908 
1510	 1.42905076934236 
1511	 0.857416650213712 
1512	 1.32161709112872 
1513	 3.49797957115926 
1514	 5.20160710153844 
1515	 5.93201157232847 
1516	 4.63171351263467 
1517	 5.03889776048453 
1518	 7.28151817481072 
1519	 6.09250153477101 
1520	 4.35167895526496 
1521	 4.31183180742473 
1522	 1.81405702347101 
1523	-1.08766942209099 
1524	 8.28210753062197E-02 
1525	 0.640614696473912 
1526	 0.717076841720889 
1527	 4.69143739072244 
1528	 5.37678254828098 
1529	 4.81523482189301 
1530	 5.26583123137473 
1531	 2.73206484876749 
1532	 1.64499413516177 
1533	-0.371827045248279 
1534	-2.19811849226071 
1535	-1.72234025209888 
1536	-2.67507642370258 
1537	-3.26695786807609 
1538	-0.967370733840835 
1539	-0.62576999908204 
1540	-3.01296170256576 
1541	-3.501039823111 
1542	-7.96799166166335 
1543	-11.7167968748224 
1544	-8.08087158796329 
1545	-5.20358743790469 
1546	-3.06230790375881 
1547	-0.323715297183936 
1548	-3.54383691388781 
1549	-10.2997102475837 
1550	-12.1649589857483 
1551	-12.4548191280708 
1552	-11.7336121095482 
1553	-6.84107894284168 
1554	-2.49096164893278 
1555	 0.601574240953101 
1556	 2.21527606057325 
1557	 2.95957738799304 
1558	 2.82302521644824 
1559	 2.11685069306967 
1560	 1.74589510920122 
1561	 0.963442105879795 
1562	 0.514159470024337 
1563	-1.76459052403722 
1564	-1.80462047209984 
1565	-0.180400172762979 
1566	 0.541710622909964 
1567	 2.49185622725963 
1568	 3.85475606107094 
1569	 4.1729751124718 
1570	-9.67639219913365E-03 
1571	-3.1290069782423 
1572	-2.68512563613611 
1573	-4.7809353318811 
1574	-3.5574666454722 
1575	-1.236988146672 
1576	-1.18117921906797 
1577	 7.03055571288559E-02 
1578	-1.0703578767892 
1579	-1.82243446119947 
1580	-0.789160094275921 
1581	-2.61959079098486 
1582	-1.34536202952507 
1583	 1.63016186395149 
1584	 7.60853609074124E-02 
1585	 1.64866905761702 
1586	 2.79596000687094 
1587	 2.11359668041081 
1588	 4.65952122985024 
1589	 3.10251564059112 
1590	 2.26660532540315 
1591	 3.23096271441746 
1592	 2.70697226484215 
1593	 4.76568203068042 
1594	 5.29542643584267 
1595	 4.19874397068795 
1596	 4.79196420556149 
1597	 5.00125740343074 
1598	 4.26923079480609 
1599	 5.31151041175209 
1600	 4.51821399871468 
1601	 2.33962712074945 
1602	-1.434900143144 
1603	-5.77447778160389 
1604	-4.46277753146697 
1605	-5.62713493908601 
1606	-5.45194424313812 
1607	-1.56182644026986 
1608	-1.600976610898 
1609	-1.52935684557964 
1610	-0.960176050399914 
1611	 0.674129021798684 
1612	-0.160649622403952 
1613	-3.17370532996179 
1614	-4.88247958453794 
1615	-6.3593053139834 
1616	-5.74260589281515 
1617	-5.98181164906955 
1618	-4.68695741921468 
1619	-4.71726250506107 
1620	-7.28031631608495 
1621	-3.91802905075128 
1622	-0.288732894451268 
1623	-0.502703169592343 
1624	-2.36760773724016 
1625	-5.62406407049119 
1626	-7.45471570374518 
1627	-5.67220577661293 
1628	 0.559450154516792 
1629	 5.44982929024255 
1630	 4.6636927011196 
1631	 4.1543197507223 
1632	 3.64365643346631 
1633	 1.93533874894473 
1634	 1.52477497705378 
1635	 0.281814196871852 
1636	-4.60645619480543 
1637	-5.8355806300908 
1638	-2.4338785082523 
1639	-2.89527500942613 
1640	-4.83505526078588 
1641	-5.41097196043779 
1642	-9.13743293723491 
1643	-9.4710506250189 
1644	-4.5657528298265 
1645	-2.97199310628009 
1646	-1.95475224388665 
1647	-1.71839591402286 
1648	-3.578434628563 
1649	-4.8300010240038 
1650	-7.46016740621089 
1651	-6.75530705031079 
1652	-3.21529529254201 
1653	-2.0859212453528 
1654	 0.923683847071106 
1655	 1.46673823854845 
1656	-2.75155492050246 
1657	-2.57726077488366 
1658	 0.709919097894264 
1659	 0.446430975989666 
1660	 0.403216785726188 
1661	-0.597491632682317 
1662	-5.67610646252389 
1663	-6.43553670974861 
1664	-4.6786554667582 
1665	-3.87149341716824 
1666	-1.55600715416644 
1667	-0.868628963317695 
1668	-1.27148200734045 
1669	-0.846559265985712 
1670	-0.711608404202804 
1671	-9.57853814394573E-02 
1672	 1.04991704820165 
1673	 1.99708506071374 
1674	 3.19974732226525 
1675	 3.90609036571937 
1676	 4.72086933271875 
1677	 5.06963293384697 
1678	 5.03862173529341 
1679	 4.06075448241101 
1680	 2.36441119052845 
1681	 0.824852457531739 
1682	-1.24493792571711 
1683	-3.59641055621113 
1684	-5.61098976143646 
1685	-8.09809708352543 
1686	-8.75797575986964 
1687	-7.99532397143771 
1688	-7.59979053705568 
1689	-6.68216756882304 
1690	-6.23831652047504 
1691	-7.20935806104804 
1692	-6.10661709607526 
1693	-1.84522401364022 
1694	-1.20420976112939 
1695	-1.58790910637999 
1696	-1.85101584784408 
1697	-5.95531307484337 
1698	-7.51105655879024 
1699	-5.75238956921923 
1700	-6.21764434022166 
1701	-8.47650614865745 
1702	-8.61753181448351 
1703	-8.80802671510469 
1704	-8.00875496175448 
1705	-5.79390550296178 
1706	-2.52619745267318 
1707	 4.13522482379701 
1708	 5.15752490954013 
1709	 4.42296344860001 
1710	 3.68737511673519 
1711	-2.59509086196395 
1712	-3.81604605870252 
1713	-0.613316009410703 
1714	-0.591180309156997 
1715	-1.82012707845023 
1716	-0.752853168803537 
1717	 1.28737547303595 
1718	 1.08164145692692 
1719	 1.19213048077854 
1720	 1.58323450307077 
1721	-0.192304149663918 
1722	-0.162565630182786 
1723	 3.24410183929154 
1724	 1.53548217637081 
1725	-3.44027563448508 
1726	-6.708241459663 
1727	-8.22363916847019 
1728	-4.76788284147188 
1729	-0.9253388620225 
1730	 2.47456951621215 
1731	 2.33321261517458 
1732	 0.282634578954974 
1733	-1.42907365130364 
1734	-5.02802212202299 
1735	-5.64647554524111 
1736	-5.59966093384382 
1737	-4.89319871403586 
1738	-1.24613673387156 
1739	 1.59227752818819 
1740	 6.13313141326084 
1741	 7.49058414576705 
1742	 7.04927744027983 
1743	 6.98704144220268 
1744	 4.36845499017774 
1745	 2.83307589181671 
1746	 2.0881363065164 
1747	 1.0010049986261 
1748	-0.976680502476991 
1749	-1.5308010785153 
1750	-0.154035337195807 
1751	-0.450830083987417 
1752	-1.35290893501809 
1753	-1.74370747981968 
1754	-3.53199066100981 
1755	-2.41917153563288 
1756	 29.199404212872 
1757	 32.9010956259341 
1758	 28.9703185351184 
1759	 26.2372332335409 
1760	 27.7051166845954 
1761	 13.4949640493438 
1762	-6.54917320056417 
1763	-12.1730985344838 
1764	-15.0517923527276 
1765	-21.3549185821198 
1766	-17.3860475063421 
1767	 13.7108171991474 
1768	 14.868605298824 
1769	-10.3478561670808 
1770	 1.13565536075396 
1771	 6.62175937427069 
1772	-7.78747683294346 
1773	-6.9091090543769 
1774	 16.3365921804398 
1775	 16.5506000117619 
1776	 1.24138338739832 
1777	-3.10416231454769 
1778	-10.3820511012781 
1779	-7.12441272914864 
1780	-8.17389738256549 
1781	-2.88705519337392 
1782	 8.89712083125212 
1783	 6.53074875999837 
1784	 7.2376808670063 
1785	 6.5512648058904 
1786	 8.30713111055455 
1787	 10.168454529464 
1788	 6.12910564222887 
1789	 3.16148958740945 
1790	 12.0792015001258 
1791	 5.65255217643041 
1792	 2.69333051220242 
1793	 15.5017647254587 
1794	 16.3106423956436 
1795	 5.9348741913868 
1796	 9.60731438697861 
1797	 17.6204334726965 
1798	 6.08935709115679 
1799	 1.68106058305791 
1800	-3.70240162372677 
1801	-8.61725701053926 
1802	-9.97761673499145 
1803	-2.68155792223941 
1804	 26.3029178599024 
1805	 36.4640724761898 
1806	 46.5616077907645 
1807	 46.5060734749985 
1808	 40.3061403445983 
1809	 23.8268352730814 
1810	 11.852404880291 
1811	 21.9136711029181 
1812	 22.3270603674414 
1813	 24.2069714565227 
1814	 26.0072815450614 
1815	 30.5766429880546 
1816	 26.0223823649292 
1817	 19.1520341787418 
1818	 9.35583137793424 
1819	-4.62757364659218 
1820	-14.9857407935311 
1821	-19.5227247833215 
1822	-16.9703768553544 
1823	-14.701958337606 
1824	-10.1740441520726 
1825	-3.66707656667831 
1826	 14.4986209272523 
1827	 18.5048199860746 
1828	 15.4917978356294 
1829	 13.3193485246622 
1830	 10.6293620638123 
1831	-0.482972970397925 
1832	-7.28199348840646 
1833	-11.762674848821 
1834	-13.6746625931836 
1835	-22.1661716136024 
1836	-19.9340504118994 
1837	-1.50591523595126 
1838	 6.44180281725768 
1839	 13.8051967173822 
1840	 26.4871335557726 
1841	 21.9772062844952 
1842	-0.58968696816239 
1843	-4.87564284618822 
1844	-12.4672748222564 
1845	-14.9578628423092 
1846	-4.43365788443787 
1847	-0.295648985774645 
1848	 2.78391765187334 
1849	 2.1406310188724 
1850	-0.927052723311521 
1851	 4.49214850996745 
1852	 4.11811786515539 
1853	-2.62337828002855 
1854	-3.07826013756972 
1855	-2.3491441788548 
1856	-3.88189770431507E-03 
1857	 6.01521614261104 
1858	 12.9162050629781 
1859	 18.6122673772005 
1860	 11.4686199442832 
1861	-6.83589280235117 
1862	-16.644796790769 
1863	-19.3445534572552 
1864	-17.938742735691 
1865	-13.4720760527099 
1866	 5.11754291304254 
1867	 11.2826028801071 
1868	 13.660549728558 
1869	 9.19784606988973 
1870	 9.44951362967065 
1871	 7.5092293739388 
1872	 7.74026312478117 
1873	 19.0700477769175 
1874	 25.3712633458942 
1875	 22.5109571979787 
1876	 18.7764852071056 
1877	 11.6001890190535 
1878	 0.258958333451166 
1879	-14.7843889678725 
1880	-20.0956300616939 
1881	-24.8557959964659 
1882	-26.6434546661041 
1883	-10.1196298556199 
1884	-0.232344193639463 
1885	 9.42184729858959 
1886	 20.6700881300342 
1887	 24.1368652162379 
1888	 14.2017127677662 
1889	 16.5666173461628 
1890	 22.466732273791 
1891	 17.2257543389502 
1892	 18.3925912882578 
1893	 13.7440205565181 
1894	 1.54672467971409 
1895	-5.39390920193981E-02 
1896	 6.24387849812952 
1897	 13.1938421140969 
1898	 32.433228597133 
1899	 38.9089663314795 
1900	 44.6678462344695 
1901	 40.1881885379898 
1902	 30.2744243916953 
1903	 17.6287382727097 
1904	 10.4391582697605 
1905	 8.6124259526166 
1906	 7.45554298804234 
1907	 0.360829377841682 
1908	-1.58350044408502 
1909	-2.00144141201081 
1910	-0.400316246811547 
1911	 1.80380290720031 
1912	 11.5403005948987 
1913	 30.3255814062387 
1914	 40.3764903201927 
1915	 53.2700955028625 
1916	 59.0757663459218 
1917	 52.5053801375412 
1918	 42.2792631900404 
1919	 33.3986970168117 
1920	 17.8485728984799 
1921	 12.2924459599337 
1922	 7.231288215479 
1923	 7.66342793443347 
1924	 22.1865272975706 
1925	 24.5069194614079 
1926	 19.2742326949913 
1927	 26.6469482956111 
1928	 20.708068766449 
1929	 11.7368139985258 
1930	 15.0544649453817 
1931	 26.3544333025415 
1932	 32.6518653444281 
1933	 48.979912747521 
1934	 54.9110022666862 
1935	 56.8304386901947 
1936	 53.4549814398487 
1937	 40.8315726136902 
1938	 31.350241448527 
1939	 19.2305201033319 
1940	 5.65612249618533 
1941	-5.79274024050371 
1942	-16.0389170433545 
1943	-24.1605582713697 
1944	-34.8963390947413 
1945	-37.5814523527572 
1946	-35.4445178706012 
1947	-29.8987799893695 
1948	-12.1629364632071 
1949	-5.239033202599 
1950	-1.68417991117208 
1951	 3.92804069584699 
1952	 8.77378646992377 
1953	 5.24446575663606 
1954	 6.88371226597086 
1955	 14.1856560595917 
1956	 13.9568790359836 
1957	 9.71721231357428 
1958	 5.27230423980041 
1959	-6.68546505949385 
1960	-8.58042587589041 
1961	-5.38400223019354 
1962	-4.84391108103259 
1963	 1.26635109037221 
1964	 5.1516283091631 
1965	 9.52141616764851 
1966	 5.71861017614673 
1967	 6.12909404607563 
1968	 11.1583749210249 
1969	 6.34168316343963 
1970	-6.04577957778464 
1971	-12.4928944489324 
1972	-23.7651614626785 
1973	-28.5287691553856 
1974	-29.1919212158527 
1975	-27.1925474781771 
1976	-19.253433602731 
1977	-14.7611144114892 
1978	-9.42899559420755 
1979	-0.714143313917101 
1980	 1.14102144900736 
1981	-5.32011521975156 
1982	-1.56738126696432 
1983	 6.72109434302385 
1984	 7.0813669627888 
1985	 7.23318953222691 
1986	 9.90350611201396 
1987	 7.86166044918334 
1988	 8.26605021069983 
1989	 17.6151670455597 
1990	 19.1497450648105 
1991	 13.5519633392888 
1992	 8.53911758129267 
1993	 10.6441794095065 
1994	 2.33335406664463 
1995	 1.00326518673589 
1996	 1.37337915872752 
1997	 5.67848581432043 
1998	 17.7773630526334 
1999	 20.0651722041143 
2000	 20.3918260010408 
2001	 22.5559728540796 
2002	 15.3583131750035 
2003	 16.8488338062554 
2004	 33.4267256826497 
2005	 36.8254259873435 
2006	 24.4455744433927 
2007	 8.94656756520495 
2008	 1.33350412361517 
2009	-9.54188269253959 
2010	-10.5368165109909 
2011	 9.59495170225389 
2012	 13.3544295369439 
2013	 7.25952382067934 
2014	 11.4095941506778 
2015	 22.8986293321375 
2016	 24.51129704569 
2017	 22.8014911239043 
2018	 21.3785523841293 
2019	 11.4410414772143 
2020	 4.92904705586798 
2021	 12.3236558950065 
2022	 29.3997532372736 
2023	 34.7848530711604 
2024	 33.0140246584068 
2025	 27.7938819771526 
2026	 5.903844587755 
2027	-4.11967182042194 
2028	-11.8551242406223 
2029	-12.5466817470879 
2030	-8.47260914114106 
2031	-1.68622550649537 
2032	 16.9888211784372 
2033	 22.6372851819093 
2034	 22.1456374792925 
2035	 27.1234652879946 
2036	 33.4566979675573 
2037	 44.9087874414375 
2038	 55.9980952076886 
2039	 59.552802636693 
2040	 53.3088804064178 
2041	 38.5351100364733 
2042	 29.8622842313212 
2043	 21.151295194105 
2044	 10.2483721526314 
2045	 2.00741332084501 
2046	-9.66272009359479 
2047	-28.2837026824594 
2048	-38.3126338113414 
2049	-46.5484197296857 
2050	-52.7752637983361 
2051	-58.0966388362732 
2052	-48.9404421843995 
2053	-32.7892483967088 
2054	-21.2744886557862 
2055	-6.27052579471731 
2056	-7.44980803692479 
2057	-13.2531131946148 
2058	-18.7330793564054 
2059	-22.7200641161927 
2060	-20.2277759556733 
2061	-25.6251228612565 
2062	-42.318110794519 
2063	-45.1423640089944 
2064	-43.6298063278446 
2065	-47.9650452357639 
2066	-36.1919513674519 
2067	-19.5361161899187 
2068	-18.3939568171043 
2069	-13.3543365749628 
2070	-14.0925429229468 
2071	-19.308561837068 
2072	-17.4973450997665 
2073	-15.8152158315931 
2074	-17.5795954282166 
2075	-10.9349613344176 
2076	-9.8129051098362 
2077	-16.9481735736599 
2078	-17.4485024402388 
2079	-14.5729004674718 
2080	-18.8204262190235 
2081	-27.5836369896602 
2082	-22.9481597454916 
2083	-25.4959456993817 
2084	-15.4559069799781 
2085	-5.05934604254468 
2086	-1.5081726798264 
2087	-2.39048540548949 
2088	-4.50295682173394 
2089	 7.45152087607665 
2090	 24.355325388946 
2091	 39.7993465360396 
2092	 53.1551285627451 
2093	 58.3551764477912 
2094	 54.601169636317 
2095	 50.8341963791229 
2096	 45.3015243349456 
2097	 39.3912181838977 
2098	 30.277271928644 
2099	 19.4434711961871 
2100	 10.207492459991 
2101	 11.6731345622238 
2102	 10.8086563966637 
2103	 5.85466954791599 
2104	 12.5341091323937 
2105	 3.29792085888191 
2106	-15.5310113374346 
2107	-22.2898316964327 
2108	-32.4808706345874 
2109	-39.3556222352596 
2110	-34.124964082142 
2111	-21.3462297493648 
2112	-11.7777788932301 
2113	-5.79611881367128 
2114	 1.91724980542627 
2115	 8.95613690212649 
2116	 9.8100634920006 
2117	 10.431937665761 
2118	 10.4984945159467 
2119	 2.4852439292147 
2120	 4.29021314638703 
2121	 7.814287897934 
2122	 9.70310179479274 
2123	 14.5143089136723 
2124	 7.85557019258079 
2125	-5.69056896019308 
2126	-17.7179445642417 
2127	-20.5811103509291 
2128	-18.6537282634077 
2129	-8.17065977001328 
2130	 6.09392222293028 
2131	-2.87625417883778 
2132	-10.2954722725602 
2133	-14.5893454439779 
2134	-20.38107838955 
2135	-20.0977079987703 
2136	-9.14781782428691 
2137	-7.84417988342213 
2138	-10.0593002756334 
2139	-10.945067716923 
2140	-15.6826489973453 
2141	-6.26475185788008 
2142	-10.8777087694452 
2143	-11.5528461465961 
2144	-10.2853161361243 
2145	-25.1291978821954 
2146	-23.3499944539741 
2147	-20.9880645558925 
2148	-26.2450210208609 
2149	-22.5905498219508 
2150	-19.6490404197989 
2151	-22.5926595742608 
2152	-17.6679617448074 
2153	-5.19316980089948 
2154	-0.451709989492429 
2155	 18.9230396037121 
2156	 28.003780697223 
2157	 27.8187330081155 
2158	 31.9595007203198 
2159	 32.7005211957461 
2160	 29.0596103571155 
2161	 28.0203881186277 
2162	 19.7103472216423 
2163	 2.26302161049424 
2164	-7.69590278780684 
2165	-19.1412229128342 
2166	-9.23099517875568 
2167	-1.39203579603299 
2168	 5.19660830494177 
2169	 18.886907003298 
2170	 23.7224868186118 
2171	 35.2729098494541 
2172	 40.7610312829683 
2173	 32.981440004509 
2174	 21.1496797889278 
2175	 9.22377564582677 
2176	 2.42727124233045 
2177	 9.80491572094251 
2178	 20.6679297270267 
2179	 25.5310324199848 
2180	 32.8358954817396 
2181	 28.8375184149451 
2182	 29.4684820554566 
2183	 30.4403551130195 
2184	 29.6904351601272 
2185	 27.045418796414 
2186	 25.0438696108105 
2187	 20.1145175697479 
2188	 8.0281014523225 
2189	 14.5239637995258 
2190	 14.6660319567287 
2191	 10.6792642155672 
2192	 9.5578825995434 
2193	 4.0362974013909 
2194	 0.640522383071921 
2195	 12.9517117888831 
2196	 27.4004659820913 
2197	 32.1274329554612 
2198	 38.3463946789054 
2199	 34.6827502636822 
2200	 29.2249980114766 
2201	 27.1091292359339 
2202	 19.7175714387337 
2203	 8.45936536820669 
2204	-0.71626099646345 
2205	-6.80636753650626 
2206	-6.97105158856348 
2207	 7.93623601250985 
2208	 17.5766890763535 
2209	 17.8785937011956 
2210	 13.9639866093696 
2211	-4.20017258964675 
2212	-13.0982113590525 
2213	-21.5621892161812 
2214	-24.4574752523741 
2215	-21.9192661631671 
2216	-20.02748546886 
2217	-19.2929175875018 
2218	-14.3824587744108 
2219	-5.1169400840364 
2220	 5.16946119475214 
2221	 11.3428122385134 
2222	 19.6665150064971 
2223	 16.8160454927173 
2224	 5.54408961793371 
2225	 5.50545176950398 
2226	 3.40754092098261 
2227	-0.809808537113452 
2228	 6.30589782624951 
2229	 10.5277127263396 
2230	 12.1258150496394 
2231	 12.0923426510347 
2232	 9.36802609685792 
2233	 8.45610816028992 
2234	 7.01442212182501 
2235	 13.2087683740114 
2236	 25.0541577139873 
2237	 22.2291370276239 
2238	 16.7206394705967 
2239	 12.2663640549585 
2240	 5.63945488773752 
2241	 5.77389725032237 
2242	 5.68429923057696 
2243	 3.67911976219891 
2244	-5.01410374352318 
2245	-6.52311064649619 
2246	-6.01708530722168 
2247	-3.33894709348607 
2248	 8.84737409141654 
2249	 16.7714878839192 
2250	 25.8280727280408 
2251	 31.8266184916044 
2252	 35.8223605521334 
2253	 33.3120605341037 
2254	 25.2297596686871 
2255	 17.5470262707748 
2256	 4.00833510955377 
2257	-5.29298002668311 
2258	-8.94088498847893 
2259	-20.4276154890018 
2260	-23.5969204335931 
2261	-24.7713602842223 
2262	-19.5402098082024 
2263	-19.6443941948671 
2264	-17.504596658572 
2265	-5.1954522531406 
2266	-9.0090458459997 
2267	 4.6517592574831 
2268	 25.2538779222857 
2269	 22.6140665283634 
2270	 26.335989344987 
2271	 25.3557912012918 
2272	 10.2638612678198 
2273	 8.22479051250304 
2274	 8.9829988736129 
2275	 12.8612890277914 
2276	 28.5199579050527 
2277	 33.3976706005831 
2278	 29.2503719690802 
2279	 20.7889563346246 
2280	-3.0726982430154 
2281	-18.1585095796156 
2282	-18.8656214683014 
2283	-14.7397059645844 
2284	 3.03147787836885 
2285	 10.4613712338578 
2286	 9.96080537573281 
2287	-0.402381401026451 
2288	-7.04161303179166 
2289	-19.6431043223608 
2290	-24.1651311902768 
2291	-27.567278225949 
2292	-26.7400060113626 
2293	-24.796566219038 
2294	-19.5992545147798 
2295	-1.87976681777443 
2296	 5.28688956653072 
2297	 11.2040452277414 
2298	 12.5962223712309 
2299	 0.661926146752079 
2300	 6.70706337777966E-02 
2301	 4.47135836620867 
2302	 7.28375824209386 
2303	 15.0168697802224 
2304	 17.3312176448395 
2305	 18.1753285195712 
2306	 15.8376509147301 
2307	 11.0343593645749 
2308	 8.61722911576066 
2309	 3.73321000869245 
2310	-2.02843047870029 
2311	-1.57444496690526 
2312	-7.4445750508044 
2313	-9.63228987795797 
2314	-13.8650645376263 
2315	-20.4931482425745 
2316	-19.1806446191402 
2317	-16.2585121313051 
2318	-15.0890485808968 
2319	-10.4009081947736 
2320	 0.443120330510429 
2321	 4.30191210867332 
2322	 0.562291681325776 
2323	 8.24700376280879 
2324	 3.51776953006603 
2325	 2.03098600124937 
2326	 17.7750671520949 
2327	 13.4901004088949 
2328	 17.7806818134615 
2329	 19.893797365498 
2330	 8.3770465779563 
2331	 10.5173379479038 
2332	 4.96940621682122 
2333	 6.26552103327179 
2334	 18.3827895522394 
2335	 23.372126019549 
2336	 31.1403725914364 
2337	 29.6660226602032 
2338	 20.3964817624776 
2339	 15.7086983667813 
2340	 3.51320459103002 
2341	-2.86414793860104 
2342	-1.19149311515509 
2343	-11.4579316268839 
2344	-13.4673834261188 
2345	-13.3786467799739 
2346	-22.819449592108 
2347	-19.0203865985906 
2348	-18.6797120958971 
2349	-25.2599790235391 
2350	-20.844132815521 
2351	-21.2241503396562 
2352	-17.9013112530339 
2353	-8.34781820360685 
2354	-4.81801937593511 
2355	 3.26103238523738 
2356	 8.92369110407801 
2357	 13.771545789271 
2358	 21.275916398469 
2359	 22.4374837856029 
2360	 22.2710662917321 
2361	 18.4712084354752 
2362	 9.67024546152748 
2363	 7.73719425817823 
2364	 3.61305901575535 
2365	 4.76583851293251 
2366	 11.0071915853731 
2367	 6.60160289465315 
2368	 6.00597726929685 
2369	 2.4829776900574 
2370	 0.689937481107615 
2371	 2.54060806607548 
2372	-3.21362493062629 
2373	-5.31497610516847 
2374	-14.2400362003717 
2375	-26.7925506084847 
2376	-23.3626429690414 
2377	-22.8590372072501 
2378	-20.8155927452272 
2379	-9.05842475073346 
2380	-9.49145032231019 
2381	-10.5044364889821 
2382	-7.96340034654407 
2383	-11.053841352439 
2384	-13.1541777360694 
2385	-7.29170843142787 
2386	-6.15981065797141 
2387	-10.9005179917403 
2388	-6.6233492639364 
2389	-10.2386631576021 
2390	-15.3253225121077 
2391	-13.6318167074699 
2392	-14.4574873756336 
2393	-10.2667181022448 
2394	-4.09142694979441 
2395	-2.67562455414947 
2396	 1.71971735009328 
2397	 9.85374139095324 
2398	 11.6485293350895 
2399	 14.713515738012 
2400	 20.5777073446663 
2401	 21.8091029541772 
2402	 21.3523860513421 
2403	 22.561993837096 
2404	 27.1120173218398 
2405	 26.4707362960552 
2406	 23.0359212250091 
2407	 28.1347035893063 
2408	 21.2223800767375 
2409	 12.6194875934318 
2410	 10.2281618938572 
2411	-7.98023677842004 
2412	-12.5558518178418 
2413	-14.542395827143 
2414	-23.0438443338289 
2415	-9.3075586814295 
2416	-4.42393002318803 
2417	-1.46858034070432 
2418	 16.0714170382735 
2419	 13.7415032356459 
2420	 4.58101573978954 
2421	-1.00869205653738 
2422	-14.1589233534157 
2423	-23.771635400254 
2424	-20.9686648398226 
2425	-8.01856915069088 
2426	-3.34925083385072 
2427	 4.19055508135393 
2428	 8.69244942662106 
2429	-10.6197216282432 
2430	-23.7588272794061 
2431	-21.8715597918367 
2432	-16.063927158762 
2433	 0.502633481969485 
2434	 19.4004898410385 
2435	 18.9298090621356 
2436	 13.4950806757917 
2437	 8.4375025682993 
2438	 4.32961098306285 
2439	 12.0085104117855 
2440	 21.5131692826848 
2441	 28.866253611022 
2442	 24.6486712728588 
2443	 12.6599836161709 
2444	-2.32215339873777 
2445	-14.6866857694052 
2446	-10.9447016205978 
2447	-2.73873536496213 
2448	 8.54307066461331 
2449	 18.6777679032481 
2450	 19.3653136823652 
2451	 27.8173342105312 
2452	 28.9168547163793 
2453	 19.4548082507488 
2454	 23.4814827857902 
2455	 21.6965050165471 
2456	 15.993096329658 
2457	 18.7590917054805 
2458	 11.3786204213584 
2459	-0.363212159715794 
2460	-6.60124120769238 
2461	-4.58322977004109 
2462	 0.368999774820402 
2463	 9.24078007793957 
2464	 21.4874579700507 
2465	 13.5109218594868 
2466	 14.0480944880503 
2467	 4.50562396055191 
2468	 5.20823231580324 
2469	 15.296306489227 
2470	 20.0949100439388 
2471	 28.7014051119305 
2472	 38.3031298812483 
2473	 43.0426957847888 
2474	 35.9215681124442 
2475	 34.1234841905465 
2476	 30.2643906637156 
2477	 22.670079856406 
2478	 29.5819327299225 
2479	 32.6448006604347 
2480	 26.4023666577011 
2481	 18.7860705584821 
2482	 10.4292952464213 
2483	-2.12576602145175 
2484	-11.0913538911929 
2485	-4.62506823087397 
2486	 2.47824249663652 
2487	 8.51285773697258 
2488	 22.6528259878708 
2489	 29.7503994414748 
2490	 25.2765065534651 
2491	 11.3088865218084 
2492	 3.19915643953154 
2493	-1.4043942698924 
2494	-9.70843274725299 
2495	 1.83066689829463 
2496	 4.7229934694909 
2497	-1.71438435554519 
2498	 3.64956745489971 
2499	-5.96975694815351 
2500	-15.0796600364559 
