Wavelength	4mm_BlackABS00000.asd
350	 0.337940905907345 
351	 0.119265612186482 
352	-0.702820475703611 
353	-0.467830830182625 
354	 0.442083422745234 
355	 0.795389501847477 
356	-0.009760898814154 
357	-0.375856789572431 
358	-0.457264053327025 
359	-0.131348438742217 
360	 0.882848141126751 
361	 0.851454296997995 
362	 9.78954407356124E-02 
363	-0.501183593821258 
364	-7.16569032484709E-02 
365	 0.106917558257634 
366	-0.203943706832041 
367	 0.171203708406112 
368	-0.653793953011497 
369	-1.38219040807439 
370	-0.26721487693327 
371	-1.17571771912015E-02 
372	-0.694501356121822 
373	-1.52745898342263 
374	-0.223344310580794 
375	 9.34290451287562E-02 
376	-0.122612597210267 
377	 1.02165046171458 
378	 1.28486244305265E-02 
379	-0.770372834205178 
380	 0.381634866617908 
381	 0.786952569946608 
382	-8.54078287437145E-02 
383	-1.08746194205817 
384	 0.397791778565584 
385	 0.293191722853028 
386	-0.345099687931257 
387	 0.189034248690635 
388	 5.48410356797149E-02 
389	-0.475374483263755 
390	-0.877851558665557 
391	-0.210794542159812 
392	-1.26150868714405 
393	-2.16446365592504 
394	 0.22551093271758 
395	 1.30153961184215 
396	 0.543796688856096 
397	-1.12164614856728 
398	-0.509478462029207 
399	 0.287784817137333 
400	 0.702322787385973 
401	 1.23073927269483 
402	 1.81864092729183 
403	 1.1540074667109 
404	-1.21256838699081 
405	-0.547810072628144 
406	 0.526272950913861 
407	 0.650918075862503 
408	 0.823950437122484 
409	-0.232037682750401 
410	-1.43618710210635 
411	-0.99324390175662 
412	-1.35817432867081 
413	-0.794183822482969 
414	 1.38003615192083 
415	 1.46774730832823 
416	 0.667623025258966 
417	-0.235145651189083 
418	-0.710872195377225 
419	-1.00118973827915 
420	-0.391668899376999 
421	 1.4808832538087 
422	 1.90634675378307 
423	 1.47408535778057 
424	 0.825420321186596 
425	 0.251231700223303 
426	-0.234866171562637 
427	-0.483593152695323 
428	-0.298142921818955 
429	 0.424206404141601 
430	 0.940500742215048 
431	 0.749350454662299 
432	 0.718552620831775 
433	 1.20327613554913 
434	 1.59974167578897 
435	-8.61689045475316E-02 
436	-0.540670768830848 
437	-9.05960322339575E-02 
438	-0.186136798775296 
439	 1.53609023963355 
440	 1.83182677879311 
441	-0.637379954589362 
442	-0.343514040427234 
443	 0.236819120654978 
444	 0.19893280082538 
445	-0.113795799749636 
446	-0.986677251032449 
447	-1.06735682857309 
448	 0.66984502281808 
449	 9.53724383311101E-02 
450	-0.352937428814261 
451	 0.554719157254613 
452	 0.38149169783751 
453	 0.017762134757649 
454	-0.498697537803577 
455	-1.56008639811118 
456	-1.85779331312107 
457	-1.50452196685699 
458	-0.799166818058421 
459	 1.27958878512373 
460	 2.00528020345883 
461	 0.420534401973128 
462	-1.55681589190684 
463	-0.574654434546858 
464	 1.04972352165359 
465	-1.90676912689121 
466	-1.91684908199842 
467	-0.405677764838827 
468	 9.23662611550416E-02 
469	 0.205635685893884 
470	 0.456591850858387 
471	 0.645978998133404 
472	-0.743510401708782 
473	-0.921913424253584 
474	-0.384885165509136 
475	-1.04858756990335 
476	-1.32411572497997 
477	-1.84349831232955 
478	-2.78140793899077 
479	-1.13979571883966 
480	 0.270489191032875 
481	 0.127612195410215 
482	-1.03206751261268 
483	-0.956094909065014 
484	 4.65295513580451E-02 
485	 0.398909499816601 
486	-1.23306890244595 
487	-1.55654416651118 
488	 1.00633688728852 
489	-0.285619837996656 
490	-2.44285761640084 
491	-3.29840688799821 
492	-1.44411728520403 
493	-0.892366472497311 
494	-1.59639110589142 
495	-1.73389847979647 
496	-0.233873076657491 
497	 0.660930631052016 
498	-0.518114930203822 
499	-1.04120527397685 
500	-1.06853107527769 
501	-0.661936586726637 
502	 0.384119730194091 
503	 9.25128276876732E-02 
504	-0.571498175099671 
505	 0.29198502371199 
506	-1.02586234388488 
507	-1.81750781245078 
508	-0.227199260739008 
509	-0.699900351208524 
510	-1.26813534901259 
511	-1.00330360230659 
512	-0.187729627426257 
513	-1.2276855483064 
514	-2.79502702031293 
515	-2.09073521690722 
516	-1.49394716028106 
517	-1.60885987485916 
518	-2.1988151251665 
519	-0.839277569226463 
520	-0.929527128706541 
521	-2.76286613206319 
522	-1.98325030547227 
523	-1.44981469684588 
524	-1.25441494473632 
525	-0.527924985772785 
526	-1.65419135890991 
527	-2.93200681955204 
528	-2.72477793391364 
529	-2.90671290588768 
530	-1.80335853560645 
531	 0.291047115523457 
532	-0.373822274206373 
533	-1.46808035155793 
534	-2.06198895733371 
535	-1.81200782743595 
536	-2.11628239687517 
537	-2.00543775764325 
538	-0.714331057316957 
539	-0.633731617331596 
540	-0.968983415285173 
541	-1.388713870426 
542	-3.08137391437776 
543	-2.0148396247284 
544	 0.530619904264559 
545	-2.71294887060276E-02 
546	-1.16822939502674 
547	-2.09701650813587 
548	-2.48108545917822 
549	-2.73489811436417 
550	-2.40195068493753 
551	-1.47239512564821 
552	-0.884322967504336 
553	-0.902793669222638 
554	-1.48788946577248 
555	-2.30800204854073 
556	-3.83545808823828 
557	-4.18323479024775 
558	-1.71160044135731 
559	-0.78408310665626 
560	-0.686957935550494 
561	-0.499092549167893 
562	 0.104600929043009 
563	-0.37996050103183 
564	-1.47374269300876 
565	-0.740880621463992 
566	-1.48310315434653 
567	-2.57781349520736 
568	-1.86819421976467 
569	-2.2236429995177 
570	-2.68805829888707 
571	-2.25474456543433 
572	-0.990837999941672 
573	-0.445768815741038 
574	-0.751890048970597 
575	-0.306575181435248 
576	-0.424996929688704 
577	-1.33300302631199 
578	-2.68598263239379 
579	-2.73763709693158 
580	-1.65801769956595 
581	-0.393091279824675 
582	-1.46044239685723 
583	-2.11001954118452 
584	-1.54352424895736 
585	-2.14973646542922 
586	-1.68498373907216 
587	-1.19637683082661 
588	-3.16896977361845 
589	-3.1406949345485 
590	-2.02482506255644 
591	-1.64673233654174 
592	-2.36676018079796 
593	-2.88600159362165 
594	-2.48049850578184 
595	-1.46763076584198 
596	-0.716326652060501 
597	-0.917708561298671 
598	-2.59165283744719 
599	-1.89987736644291 
600	-0.794189522728325 
601	-1.82570072663802 
602	-0.204752550277398 
603	 0.578900366788873 
604	-1.29278878173461 
605	-2.18382091000821 
606	-3.20471382084986 
607	-3.67470865681188 
608	-1.25244863732014 
609	-0.506986542136874 
610	-1.45106403093626 
611	-2.48130819678695 
612	-2.92441480048383 
613	-2.78661770719301 
614	-2.25268050792813 
615	-1.4798563866017 
616	-1.22443756998602 
617	-1.60480132767789 
618	-1.96578738087734 
619	-2.59718437915129 
620	-3.26057114825799 
621	-3.4928357396145 
622	-2.96093910709001 
623	-1.80833079917963 
624	-0.685188494043584 
625	-1.97150494459336 
626	-2.60562399279869 
627	-1.84863413805879 
628	-3.09483488813875 
629	-3.06887429689779 
630	-1.84057583926114 
631	-1.22898311295023 
632	-1.73980850166048 
633	-2.4175439810454 
634	-2.25433200542289 
635	-2.13443345899687 
636	-1.62957070106737 
637	-0.795253412589901 
638	-0.702452156278922 
639	-2.13170072746619 
640	-3.85704647516326 
641	-3.00897902265901 
642	-2.34248200017242 
643	-1.69539310332858 
644	-0.471438389714564 
645	-0.644809649551075 
646	-1.34220638591424 
647	-1.95157003783615 
648	-3.58803810856922 
649	-3.10338181842559 
650	-1.02579518741854 
651	-1.62647612365907 
652	-0.432008652459962 
653	 0.361607127924791 
654	-2.81799138635309 
655	-3.32107779394041 
656	-2.84977225543405 
657	-3.06250686262458 
658	-1.47575997380952 
659	-0.591539207153275 
660	-1.41415434835033 
661	-3.37649584254145 
662	-2.8882534250094 
663	-1.3598628049346 
664	-2.3195393774737 
665	-3.03095408860444 
666	-3.1077915672626 
667	-2.71244508622136 
668	-2.46643270973543 
669	-2.45626415755474 
670	-2.63145478424362 
671	-2.87895954376178 
672	-1.9284730237935 
673	-0.760235173811389 
674	-1.58078107367864 
675	-2.42153483445293 
676	-2.51687737522628 
677	-1.77134915281366 
678	-2.13192894320776 
679	-1.51428627093457 
680	 0.220096542193411 
681	-1.25337594781836 
682	-2.29879505478025 
683	-2.55637081396473 
684	-3.64141389364664 
685	-2.67270393859213 
686	-1.41744201846404 
687	-2.1755238984 
688	-2.39539602278454 
689	-3.11225297597509 
690	-4.43648865719049 
691	-3.47615628708949 
692	-3.40646172347758 
693	-3.88294668129777 
694	-1.65023069217376 
695	-1.97535858943614 
696	-3.73572775558921 
697	-4.03906960233781 
698	-2.86149307980544 
699	-1.72246855058324 
700	-1.69422101463284 
701	-2.43410283748336 
702	-2.67875262875677 
703	-2.13902870637416 
704	-1.46159763545019 
705	-1.21716287792457 
706	-1.4665932290946 
707	-1.9840104574978 
708	-2.35092767875436 
709	-2.08680431094448 
710	-1.27435310638791 
711	-1.60193958246245 
712	-2.12533023208935 
713	-2.40571508751408 
714	-2.48796257715439 
715	-3.32792082148303 
716	-3.94432313221465 
717	-2.83049553638025 
718	-1.78766563843882 
719	-1.73504263768714 
720	-2.68552880254214 
721	-2.20827886291083 
722	-2.15242950613043 
723	-2.81532339019635 
724	-2.51350504885503 
725	-2.12505408938599 
726	-2.28821134090325 
727	-3.3864072188061 
728	-3.15865750775559 
729	-2.61319515514572 
730	-2.79141268122773 
731	-2.97646081466777 
732	-3.19848214750574 
733	-3.16647538707681 
734	-1.98820536813467 
735	-1.86823431486347 
736	-2.42544730039372 
737	-2.20997494725248 
738	-1.7436446245431 
739	-2.10683487182212 
740	-3.32071894705131 
741	-0.993334114429653 
742	-0.489019653211479 
743	-2.61140032602422 
744	-1.87514228803893 
745	-0.920179313755628 
746	-0.966678315371343 
747	-2.51262516894344 
748	-1.8535604542975 
749	-1.24985622661858 
750	-2.50352069638098 
751	-2.30049795492909 
752	-2.58689844209167 
753	-3.54985881323742 
754	-2.97588495108147 
755	-2.49809787359252 
756	-2.18751795755327 
757	-1.66078368514171 
758	-2.3432528842319 
759	-2.71324331881779 
760	-2.09446239806713 
761	-4.43958464862597 
762	-4.28645490911173 
763	-1.48948682633273 
764	-2.34433098991459 
765	-3.67494476650061 
766	-3.57082930782736 
767	-1.06653516488686 
768	-1.70393658517795 
769	-2.71604967530527 
770	-1.89941136741599 
771	-1.87864950084753 
772	-3.03278158404593 
773	-4.10866031550113 
774	-1.9410710807207 
775	-1.50812508258177 
776	-2.58310834564108 
777	-3.13381218710517 
778	-1.70350503312547 
779	-1.27877514085028 
780	-2.95327130494317 
781	-1.81926486823231 
782	-1.0368702640384 
783	-1.38643918062234 
784	-1.82795199096978 
785	-1.17094153724461 
786	-1.01841805530783 
787	-2.82006271688761 
788	-1.81321275139501 
789	-0.869882229995122 
790	-1.59399407480439 
791	-1.95415906636865 
792	-2.23796284215312 
793	-2.97333974917989 
794	-4.79553314743099 
795	-3.84284056918002 
796	-2.45382307763385 
797	-3.10139684048386 
798	-2.24306007824146 
799	-0.845990166954028 
800	-0.464444212306421 
801	-4.03291795121203 
802	-3.59444125887528 
803	-1.06521921998056 
804	-2.48674988222114 
805	-2.75162650975757 
806	-2.36642162438102 
807	-2.42979672631496 
808	-3.39720837206698 
809	-2.50125401475816 
810	-0.28486000570103 
811	-0.952987405717443 
812	-2.51299664618943 
813	-3.16571718064266 
814	-1.75594645272337 
815	-2.28146853157335 
816	-2.38894448007824 
817	-0.943543626795298 
818	-0.768617559921875 
819	-1.88632362048672 
820	-2.89881373755528 
821	-1.42847317645923 
822	-1.72104102245438 
823	-2.34748185357087 
824	-1.57258991397228 
825	-2.23076794214846 
826	-2.61589075304879 
827	-1.94569972311018 
828	-0.756984995927498 
829	-1.66086155325493 
830	-3.06756269137959 
831	-2.09050419280043 
832	-2.70924835939851 
833	-3.35484191221535 
834	-2.79963669958055 
835	-2.538492073188 
836	-2.48203665869441 
837	-2.36003100741009 
838	-1.71288844077042 
839	-0.618722056801728 
840	-0.318213866358526 
841	-1.51456079527039 
842	-0.947687406687837 
843	-0.765397872145156 
844	-1.55117120367173 
845	-1.08848627316367 
846	-0.89995096468458 
847	-1.51330100655449 
848	-2.82352995043197 
849	-2.4763032062924 
850	-1.19317161077941 
851	-0.398964899960624 
852	-2.74667750827367 
853	-2.47168442761723 
854	-0.321139142310832 
855	-1.75746717318 
856	-2.59367975897672 
857	-2.90973413077116 
858	-3.31334987719052 
859	-2.5475138831933 
860	-2.15193219927929 
861	-2.52661036298574 
862	-2.59377199967901 
863	-1.40594673611164 
864	-0.423723333363486 
865	-1.46862462096348 
866	-2.21260953643612 
867	-2.01540230163934 
868	-1.17689652413626 
869	-1.68569359244666 
870	-1.18019613980874 
871	-0.570872836203033 
872	-2.1187194748891 
873	-2.58092949869015 
874	-1.69154418355824 
875	-0.313342218735898 
876	-1.16692739295372 
877	-1.68426586498091 
878	-1.10089258582019 
879	-0.149921512691991 
880	-1.32420251121354 
881	-2.9559489791178 
882	-3.04003290427564 
883	-2.50296486628075 
884	-1.99922157443551 
885	-1.90276795078289 
886	-2.27485549495983 
887	-3.1054722536411 
888	-3.90748327316817 
889	-4.03011014465927 
890	-2.69994215271116 
891	-2.03384998007157 
892	-2.3089894876213 
893	-0.405166528635839 
894	-1.2041553441676 
895	-3.08301589589543 
896	-2.44325247974466 
897	-1.99777863604542 
898	-1.58313704918536 
899	-1.04282967167385 
900	-0.638747797144179 
901	-1.86146081737339 
902	-3.42328480138476 
903	-2.85740906178516 
904	-1.47519601363123 
905	-0.935399718364508 
906	-1.79357148048303 
907	-2.01371272588462 
908	-1.79808971961326 
909	-1.63359528738503 
910	-2.21707252516261 
911	-3.53648253989407 
912	-3.7098084347214 
913	-1.94417146523969 
914	-0.969574545923087 
915	-0.593411563661855 
916	-0.507660638506312 
917	-0.362590075319942 
918	-2.16289719820258 
919	-3.61108293403063 
920	-3.13428416881622 
921	-3.72597698694546 
922	-2.69037075957529 
923	-0.939141363082874 
924	-1.82732348560422 
925	-2.43125507459018 
926	-2.32888242304434 
927	-1.71274484015855 
928	-0.962494504514584 
929	-1.22319586336112 
930	-2.24796728575112 
931	-2.70465235299925 
932	-2.08557042304085 
933	-1.54464030811816 
934	-1.92215042587376 
935	-2.19278188412078 
936	-1.57446399131787 
937	-1.37372710138821 
938	-4.0394245540468 
939	-4.25321489405523 
940	-2.62488586663763 
941	-1.05407498041669 
942	-1.98791285744159 
943	-1.73132345893892 
944	-0.969278096899412 
945	-2.83310345035594 
946	-2.87458647777355 
947	-2.77156139672478 
948	-3.31372131077353 
949	-4.19581583893446E-02 
950	-0.224005529129852 
951	-2.41718325356432 
952	-1.08579488110555 
953	-1.76006874671042 
954	-2.7076075625212 
955	-2.35074485703572 
956	-1.13538662986349 
957	-0.800662768726745 
958	-1.33864664734405 
959	-1.87677123796137 
960	-1.89614135087755 
961	-2.08361844290105 
962	-2.24149688737546 
963	-0.377466968541772 
964	-0.084985099677297 
965	-1.1061916094455 
966	 1.96024831314895 
967	-1.92521340103228 
968	-2.759206807777 
969	-2.36629527221869 
970	-0.410454662374792 
971	-0.323615936909047 
972	 1.48677512943623 
973	 2.3364677888687 
974	-0.633051610149763 
975	-0.595948640566626 
976	 1.53341505863916 
977	 4.92000372003287 
978	 4.66745691715813 
979	 4.75191557889072 
980	 1.57094277696679 
981	-3.48366475057915 
982	-3.89789817084756 
983	-0.837569905835718 
984	 1.72917610965668 
985	 3.03933960010722 
986	 5.4160375736414 
987	 7.51632744982684 
988	 8.22265094281979 
989	 9.79668060441847 
990	 9.93113567631203 
991	 5.59364234234371 
992	 3.79604651952639 
993	 2.61037473906978 
994	 5.28657222102702 
995	 5.47560577027114 
996	 5.76278619981235 
997	 3.27747240836928 
998	-1.09613329095436 
999	-1.89760161420776 
1000	-1.72716591082324 
1001	-0.660136861255927 
1002	 3.89050613265995 
1003	 4.95156271834192 
1004	-0.438353177248868 
1005	-1.77787137298065 
1006	-2.55213260394736 
1007	-2.78484294365714 
1008	-2.79384188616412 
1009	 2.00412229598807 
1010	 4.71848956858716 
1011	 4.83633961219885 
1012	 7.11855283405126 
1013	 7.32367000673581 
1014	 4.78758852652809 
1015	 1.4434221862245 
1016	-1.52127099547704 
1017	-0.708280385909662 
1018	 1.40022064055678 
1019	 4.45447099086724 
1020	 6.13158255231046 
1021	 3.39423457597519 
1022	-0.162912250343195 
1023	-1.88646752175278 
1024	-3.31082269027922 
1025	-5.21772252044101 
1026	-4.29519464341209 
1027	 0.25631829387801 
1028	 2.06928919572121 
1029	 2.76270844234791 
1030	 4.77872718411701 
1031	 3.47691087180412 
1032	 0.597690708368563 
1033	 2.26791068981815 
1034	 3.55925092905562 
1035	 3.17775646815646 
1036	 3.21158507593345 
1037	 0.659742092600277 
1038	-2.94037034720417 
1039	-3.17550628275232 
1040	-2.13798379243908 
1041	 3.33143275233233 
1042	 5.46264964317154 
1043	 8.41328591807064 
1044	 7.2057093403262 
1045	 6.2914260349746 
1046	 4.89945795472415 
1047	 2.13378270954226 
1048	-0.418666927671817 
1049	-4.06854789996856 
1050	-3.97641322297324 
1051	-3.73316021912568 
1052	-2.54175575206833 
1053	 1.99827820763853 
1054	 2.60819726097597 
1055	 2.18254322297203 
1056	 3.27663024297786 
1057	 2.11924649158169 
1058	-3.2269883822582 
1059	-4.85599816835787 
1060	-6.0334842762183 
1061	-6.80882161995643 
1062	-7.16521806956351 
1063	-4.36638426402958 
1064	-0.646618999679625 
1065	 2.27224153015385 
1066	 3.19207893850782 
1067	 3.40004398321763 
1068	 1.62849688120084 
1069	-0.472705398008933 
1070	-1.42072957225049 
1071	-1.3468211543126 
1072	-0.371841112102089 
1073	 0.631782682071235 
1074	 1.57200292881508 
1075	 4.84796197261111 
1076	 5.44776551488514 
1077	 3.71105445990195 
1078	 2.74928917494903 
1079	 2.0777790987854 
1080	 0.971942163589107 
1081	-2.94529102929066 
1082	-2.92522240621707 
1083	-0.222968955088004 
1084	 1.73478193283973 
1085	 1.25011987986246 
1086	 5.65038742756508 
1087	 7.07676464584328 
1088	 6.19467775258868 
1089	 11.3616335670801 
1090	 13.9371455727113 
1091	 13.7423825721486 
1092	 11.7818580655478 
1093	 9.3961472167635 
1094	 3.29658479923044 
1095	-0.182087468198347 
1096	-3.98136804458465 
1097	-5.42841169239779 
1098	-4.78788028943389 
1099	-4.69317743953974 
1100	-2.37525641869561 
1101	-1.74442801428263 
1102	-4.01653536359291 
1103	-3.51863981601168 
1104	-1.21058743547043 
1105	 0.642531471403716 
1106	 0.843989269375759 
1107	 2.64246170635109 
1108	 3.68222860463383 
1109	 3.88332471771868 
1110	 4.63669943995951 
1111	 7.89664578145637 
1112	 7.72233559480475 
1113	 4.68291746810563 
1114	 4.05599798677143 
1115	 3.47690921096453 
1116	 2.91971807305543 
1117	 3.14948474946621 
1118	 2.8603491927678 
1119	 2.02997965693387 
1120	 1.53821258195312 
1121	 2.06494436950211 
1122	 1.22636477188934 
1123	-0.989466205889199 
1124	-1.95757706132589 
1125	-4.24174912747527 
1126	-4.57663859439324 
1127	-3.59478595381965 
1128	-0.135072082868048 
1129	-0.112058458762618 
1130	 0.297179108229546 
1131	-1.20887216952252 
1132	-6.58447302747127 
1133	-7.75672966279168 
1134	-8.23319390799711 
1135	-7.33240886855856 
1136	-2.69663177534808 
1137	-1.55380270015588 
1138	-1.58480179900387 
1139	-1.00385468971594 
1140	-2.6630621542295 
1141	-2.12321178635835 
1142	 2.7835366598908 
1143	 3.05463787755845 
1144	 0.661722371577418 
1145	-0.639826683369965 
1146	-6.89548574304886 
1147	-8.60637772528279 
1148	-7.87453593976284 
1149	-2.70422563893399 
1150	-1.87204000150571 
1151	-2.12316913807102E-02 
1152	 0.294075267703967 
1153	-2.72313227571785 
1154	-2.7642356961543 
1155	-0.959650927149245 
1156	-0.303842161952951 
1157	 1.45850398570574 
1158	 0.626118744922703 
1159	-2.13133785991616 
1160	-3.91671740799809 
1161	-8.00146514970903 
1162	-9.6441049899102 
1163	-9.51399300560843 
1164	-9.45317010899522 
1165	-8.79176004066023 
1166	-7.43705008256029 
1167	-6.49895413286958 
1168	-2.83818221665708 
1169	 2.04719364536442 
1170	 3.36575916806797 
1171	 4.35653901662306 
1172	 3.94417759233107 
1173	 4.69747733946618 
1174	 5.38053074030666 
1175	 5.06968747584579 
1176	 5.12975477091191 
1177	 4.45629545511262 
1178	 0.992693877130678 
1179	 0.116931083112525 
1180	 0.833977892489152 
1181	 0.997397729337127 
1182	 2.21400744691145 
1183	 2.29163171013536 
1184	 1.21355649568652 
1185	 1.4894511404296 
1186	 1.68943893503328 
1187	 2.51459793377296 
1188	 6.55109390336509 
1189	 6.875499098154 
1190	 4.56725312483906 
1191	 2.31231288940753 
1192	 1.4624061070653 
1193	 2.49474346345263 
1194	 4.08740354467868 
1195	 5.75598891689107 
1196	 5.6241115221927 
1197	 2.42149364047738 
1198	 0.800718096219098 
1199	-0.682934895237988 
1200	-1.73420712924238 
1201	-3.31820755084968 
1202	-3.52898751251813 
1203	-2.49467989714586 
1204	-1.41578372004756 
1205	 0.179876721689688 
1206	 1.80096266280572 
1207	 4.92955929980234 
1208	 6.13509773862941 
1209	 6.78267385285466 
1210	 7.21691053197116 
1211	 7.1800579172052 
1212	 4.97474020499005 
1213	 4.22578220246077 
1214	-0.530005890894247 
1215	-3.20142103717845 
1216	-2.50621359358941 
1217	-2.42086100461811 
1218	-0.69707948792619 
1219	 8.26774903360115E-02 
1220	-1.80816113402317 
1221	-2.44811876730676 
1222	-3.37750810494419 
1223	-2.18601385561889 
1224	 0.286912496897522 
1225	 1.1670128450534 
1226	 4.07736783368497 
1227	 3.49730160562508 
1228	-1.20059084429407 
1229	-2.16297209183248 
1230	-3.42608024865374 
1231	-4.08608079598081 
1232	-1.96939569345667 
1233	-1.27241941538206 
1234	-1.85320018345692 
1235	-0.794019351035472 
1236	 2.31085135682645 
1237	 2.26926499843568 
1238	 2.60678620866635 
1239	 2.23375149253695 
1240	-1.25622534540436 
1241	-0.400521824360384 
1242	-0.952741403415208 
1243	-1.70028518628969 
1244	 0.140277755201468 
1245	-2.86012470115987 
1246	-3.47225871939719 
1247	-2.11504906247674 
1248	-2.19805936881841 
1249	-0.644009170943782 
1250	-0.650226857239083 
1251	-2.37670617083082 
1252	-2.61955674891525 
1253	-2.75230685139482 
1254	-2.40668523477858 
1255	-0.412720547065445 
1256	 0.639349204794087 
1257	 1.61430939967738 
1258	 1.65669678444728 
1259	 1.10662356304629 
1260	 4.76974762296226E-02 
1261	-2.5616560903843 
1262	-3.87547526150182 
1263	-4.27470936245249 
1264	-2.98770794706885 
1265	 0.668843173138006 
1266	 2.11663705223196 
1267	 3.92221263067753 
1268	 4.20588994626687 
1269	 2.83630488797513 
1270	 3.05310776503835 
1271	 1.16575636419996 
1272	-0.697335048525735 
1273	-1.04039256417015 
1274	-2.84127163593473 
1275	-3.15303492369636 
1276	-2.4514036529706 
1277	-2.10033018858615 
1278	-0.802417938626452 
1279	 0.579687398090251 
1280	 2.63148862469704 
1281	 3.90984542487419 
1282	 6.03011561860753 
1283	 6.12925509574371 
1284	 3.9955244328878 
1285	 3.55826421873095 
1286	 2.52492429333909 
1287	 1.77186476941056 
1288	 2.5238113915829 
1289	 1.85446029733784 
1290	-0.577508815141201 
1291	-0.407506872099024 
1292	-0.496394740442091 
1293	 1.28170262382278 
1294	 3.2738551018346 
1295	 0.155190730135983 
1296	 0.313906405790788 
1297	 0.79003811724942 
1298	-0.700329203808517 
1299	 4.31434704395356 
1300	 6.15945204868862 
1301	 3.51254771765769 
1302	 2.38565189263136 
1303	-0.302478407590469 
1304	-2.80155354101009 
1305	-2.61549709518763 
1306	-2.75067927663202 
1307	-2.59081746119498 
1308	-0.72020089065787 
1309	-0.978260779863658 
1310	 1.06767593657878 
1311	 2.34421563951227 
1312	 3.31755428945834 
1313	 5.31575416166552 
1314	 5.91847694666253 
1315	 5.35423453534028 
1316	 4.67898063683862 
1317	 2.27846035849282 
1318	 5.38620312499534E-02 
1319	-2.27679506582376 
1320	-5.46826699901545 
1321	-6.19151322124471 
1322	-5.08995084687041 
1323	-6.17961362536045 
1324	-3.77379711155019 
1325	 0.226244245461866 
1326	 3.16138174772085E-03 
1327	-0.965390479684008 
1328	-0.594095244192594 
1329	-0.84165225733883 
1330	-1.90818652723833 
1331	-1.16159977156343 
1332	-2.17079725531549 
1333	-4.31808227026652 
1334	-4.21438766095155 
1335	-3.22131390071219 
1336	-0.572110455795603 
1337	 0.533979925656592 
1338	-0.27337815210059 
1339	 0.199430988512942 
1340	 1.87523108671106 
1341	 3.36697396857135 
1342	 4.50138170980683 
1343	 5.41663241453441 
1344	 4.08465138120346 
1345	 5.68573443511719 
1346	 6.94479877115809 
1347	 7.20380051820079 
1348	 8.7516073760064 
1349	 9.6612923182329 
1350	 7.9402214323811 
1351	 8.52027073874957 
1352	 9.06546342391035 
1353	 8.40885437922893 
1354	 8.10639064153749 
1355	 9.18089582934306 
1356	 6.71875307092183 
1357	 7.22668412405246 
1358	 7.48822370919248 
1359	 4.30158042614161 
1360	 1.74829147899422 
1361	-0.780116156200691 
1362	-1.39779783540744 
1363	 6.94416302914602E-02 
1364	 2.22706669435098 
1365	 6.1339987680147 
1366	 5.01828809243211 
1367	 1.55992003195067 
1368	 0.441670496272127 
1369	-2.11501672619789 
1370	-2.30971149431484 
1371	 1.26591689137211 
1372	 3.84268619045827 
1373	 3.44621235737788 
1374	 4.29517994517217 
1375	 4.91865352302677 
1376	 3.12799044231747 
1377	 2.27503941509006 
1378	 1.44040504233269 
1379	-0.199531921325345 
1380	-0.990292444897173 
1381	 7.07658638614591E-02 
1382	 0.267880707832853 
1383	 0.521012399910646 
1384	 0.879149617760241 
1385	-0.491186002072652 
1386	 0.539542294951541 
1387	 1.93288482790373 
1388	 2.16469797015498 
1389	 4.59866422192858 
1390	 6.48760848008657 
1391	 8.76182344703997 
1392	 9.59751723040232 
1393	 9.26318099213476 
1394	 8.13151125906923 
1395	 5.80174561947355 
1396	 4.13784786097463 
1397	 2.66588659382365 
1398	 4.70379904863649 
1399	 7.79456571440885 
1400	 6.74300540456093 
1401	 4.25638428971907 
1402	 2.13278280703145 
1403	-1.46544247178739 
1404	-2.26017214432496 
1405	-1.6271979049017 
1406	-1.50379025014837 
1407	-0.218265568484701 
1408	-0.838586369458883 
1409	 0.127573106487307 
1410	 3.19826651514021 
1411	 3.86213291780978 
1412	 5.8757847498995 
1413	 8.46397206042285 
1414	 9.3852540900614 
1415	 10.6051205246233 
1416	 10.5532156353826 
1417	 8.5540319872438 
1418	 5.47382510274806 
1419	 1.53894863807518 
1420	-1.26416617653963 
1421	-1.64915976187856 
1422	-0.937166337816728 
1423	-0.862127914769834 
1424	-0.766534244680113 
1425	 0.420328138832176 
1426	 1.30537442544991 
1427	 1.44602493037411 
1428	 0.860842645853008 
1429	-2.33856034505802 
1430	-7.22793827042556 
1431	-8.37755986195985 
1432	-7.6511611897036 
1433	-9.35397311426377 
1434	-8.24603786811252 
1435	-4.66658853583708 
1436	-2.88451559360707 
1437	 0.166540636155049 
1438	 1.80583165464586 
1439	-0.843480723842189 
1440	-3.47214556472711 
1441	-4.53575883853847 
1442	-4.11817010794695 
1443	-3.82395077310317 
1444	-2.7719389811773 
1445	-1.16000586530968 
1446	 1.29426985042085 
1447	 2.56055906858043 
1448	 4.31578186144376 
1449	 4.56054974634264 
1450	 2.80049224091367 
1451	 1.89844245670916 
1452	 0.792673085283777 
1453	 0.312393547691266 
1454	 0.49171141207001 
1455	 0.288925796760536 
1456	-1.34510446045549 
1457	-2.07348249986838E-03 
1458	 0.43694353797011 
1459	 2.76333153532422 
1460	 5.51959672077907 
1461	 4.76990420830549 
1462	 5.13427666278516 
1463	 2.53258791574396 
1464	 0.733045271479598 
1465	 1.40202852461937 
1466	 0.745895648740559 
1467	 1.50558633271154 
1468	 2.39645414261711 
1469	 2.18602333907713 
1470	 0.39186864325047 
1471	-1.5404936393447 
1472	-1.31266127944883 
1473	-1.23380677347624 
1474	-1.5943759086803 
1475	-3.7063240698967 
1476	-7.47583362133336 
1477	-8.40909987247489 
1478	-5.56051014830846 
1479	-1.85478997230517 
1480	 1.11427446701566 
1481	 3.3907567231995 
1482	 3.37060196075274 
1483	 4.4504077642724 
1484	 6.77032771182061 
1485	 7.27282850746185 
1486	 5.77492928293793 
1487	 2.72606712292767 
1488	 1.50114704887247 
1489	 1.16414226155242 
1490	 1.41731259807237 
1491	 1.53914303302037 
1492	 0.903110884538497 
1493	 0.662971142870565 
1494	 0.16777714405433 
1495	 1.98055133438678 
1496	 3.57021742555545 
1497	 1.04284136057661 
1498	-1.55925562964096 
1499	-5.2467720747754 
1500	-9.32074930639141 
1501	-8.31637159319773 
1502	-5.14679279380342 
1503	-0.732787855177832 
1504	 2.70210254428713 
1505	 3.78868491770932 
1506	 4.4166618273693 
1507	 3.3928733578058 
1508	 4.12615801860516 
1509	 5.36899017199594 
1510	 5.23514276684487 
1511	 6.26932887489752 
1512	 7.0886215926401 
1513	 7.39502488129901 
1514	 6.13737769291215 
1515	 3.7515430900757 
1516	 1.12099526232621 
1517	-6.70373767209384E-03 
1518	 3.55393864597324 
1519	 5.92951847153208 
1520	 6.03448244062577 
1521	 5.94034667012081 
1522	 2.67484819476786 
1523	-1.75312558661915 
1524	-0.51922148727621 
1525	 2.10060973427708 
1526	 1.03385390230823 
1527	 2.81984852455319 
1528	 1.54610361763094 
1529	-1.42541108803715 
1530	-2.00333926955273 
1531	-4.66900676975967 
1532	-3.70993499552427 
1533	-0.768770928392609 
1534	 1.82795102071614 
1535	 3.4692428288218 
1536	 3.09926287261839 
1537	 1.56923529539701 
1538	-0.189971524262241 
1539	 2.44244073408866 
1540	 4.6357004562542 
1541	 4.15826815564613 
1542	 3.88820358835055 
1543	 2.99134819585783 
1544	 0.873358011054493 
1545	 0.225801453127588 
1546	 2.41677325463122 
1547	 1.10553120912979 
1548	-1.94911493039684 
1549	-4.15964269166728 
1550	-6.33861658095564 
1551	-7.31305537938652 
1552	-6.08751585920066 
1553	-3.47752161654691 
1554	-3.66734245608708 
1555	-4.54367597846984 
1556	-4.22022647162274 
1557	-2.99123092949252 
1558	 0.11839737846861 
1559	 2.53760687565555 
1560	 3.088566104233 
1561	 1.83887777750378 
1562	-8.81288713943415E-02 
1563	 0.225379536775414 
1564	 0.666313113650474 
1565	 3.69962944261292 
1566	 6.43898717639407 
1567	 2.76999667544879 
1568	 1.12111959134824 
1569	 0.332921941405281 
1570	-1.46483019120974 
1571	 1.63953683445061 
1572	 3.37773872547043 
1573	 1.72767501698359 
1574	 1.20813327078722 
1575	 0.258955476270028 
1576	-2.99331345786922 
1577	-5.58453108818652 
1578	-5.2707637513506 
1579	-4.7708699628905 
1580	-3.47647587821124 
1581	-0.768054698622144 
1582	 1.11718982624456 
1583	 0.112397671035594 
1584	-0.212955620028345 
1585	 1.59050507727113 
1586	 0.930444426590883 
1587	 2.91522407187031 
1588	 6.23867997207565 
1589	 5.2067403864547 
1590	 4.33097610375769 
1591	 1.0705878141011 
1592	-2.54963862189203 
1593	-2.4100941132966 
1594	-2.69768001416896 
1595	-1.53818910630177 
1596	 0.963675509270866 
1597	 0.438809337664874 
1598	-0.497609408152357 
1599	-1.31955958522172 
1600	-5.04848866375471 
1601	-6.88464992055793 
1602	-5.58600898412449 
1603	-3.67147286513651 
1604	-2.86152053597654 
1605	-0.21309487987899 
1606	 2.9466284568264 
1607	 2.17995150487544 
1608	 2.5856506691617 
1609	 2.7983669278579 
1610	 0.4294046399379 
1611	-1.30278931398926 
1612	-0.237969572781402 
1613	 2.77486861197756 
1614	 6.05668010859157 
1615	 8.43595358944415 
1616	 8.04742465617203 
1617	 5.59225591635046 
1618	 2.40104063105822 
1619	 0.300425202742321 
1620	-0.289834587536066 
1621	-0.24589706519379 
1622	 2.07885716365083 
1623	 3.46983416857622 
1624	 4.14254049393519 
1625	 4.21904709890699 
1626	 2.09271526244346 
1627	 0.551636810689564 
1628	-0.256339058976021 
1629	 8.55166482936372E-02 
1630	-0.3654375498455 
1631	 0.134963424850658 
1632	-1.22028368949485 
1633	-3.10738248113753 
1634	-1.38692216874791 
1635	-0.530704628629922 
1636	 3.65414352034458 
1637	 5.06974540575414 
1638	 3.63939120149885 
1639	 3.06439116000806 
1640	 1.73716915547552 
1641	 0.946467841939048 
1642	 6.63158411155824E-02 
1643	-0.198866599639947 
1644	 0.1156946065954 
1645	 0.436647575973372 
1646	 0.980954991308863 
1647	 1.75998994467215 
1648	 3.33575313133617 
1649	 4.0201461503454 
1650	 4.88159129404991 
1651	 4.49052709126811 
1652	 2.41076702319247 
1653	 1.44235354199421 
1654	 0.395019670851113 
1655	-0.375891234308096 
1656	-1.71734327978268 
1657	-1.04792772642119 
1658	 1.17150919448983 
1659	 2.84025807155798 
1660	 6.82561690442073 
1661	 7.71304064779966 
1662	 5.7655199987987 
1663	 5.3320632682929 
1664	 5.01085229049005 
1665	 4.67757062848757 
1666	 5.29945738372753 
1667	 4.28219421931999 
1668	 1.57978209132731 
1669	-0.411106465841776 
1670	-3.69096307442447 
1671	-4.22730222825262 
1672	-2.79088611907169 
1673	-2.3916507978344 
1674	-0.109587383363041 
1675	-1.0785511560909 
1676	-5.09223524428543 
1677	-5.48580383311028 
1678	-5.94175220763757 
1679	-4.93004859276021 
1680	-0.304636902693517 
1681	-0.373856339107446 
1682	-2.96283308031902 
1683	 9.78690833792802E-02 
1684	-1.1871376492668 
1685	-0.731324641600819 
1686	 0.184581153176661 
1687	-4.23784495914366 
1688	-5.90636029096493 
1689	-5.04484345017249 
1690	-5.06391571007846 
1691	-5.38138472601357 
1692	-4.21738683777054 
1693	-2.51192305647351 
1694	-0.801625094052041 
1695	 4.44329484707465 
1696	 5.56309992782959 
1697	 2.69127455564339 
1698	 2.02566932477457 
1699	-8.40285164093488E-02 
1700	-1.02253964546719 
1701	-0.19775056511864 
1702	 0.883860296163948 
1703	 2.05819057347933 
1704	 3.40947040433795 
1705	 7.08099921331122 
1706	 7.79352753170281 
1707	 7.07540816889898 
1708	 5.62522257461494 
1709	 1.5200966565094 
1710	-0.38495394715773 
1711	-2.59454961384024 
1712	-3.04306006308219 
1713	-1.48437778726134 
1714	-0.757319934700966 
1715	 0.569713450309079 
1716	 1.84572140958442 
1717	 3.25027345555225 
1718	 3.80282194718435 
1719	 4.58623624118976 
1720	 4.55714095502106 
1721	 3.23935734883064 
1722	 2.81834851188352 
1723	 2.78807915939432 
1724	 1.17854395640387 
1725	-1.23254483719377 
1726	-1.48921382603102 
1727	-3.29134478748683 
1728	-4.46369633971674 
1729	-3.71381530933533 
1730	-3.2382323428982 
1731	-1.53956043989502 
1732	-0.212547003814619 
1733	 1.51172077377231 
1734	 4.4317226718503 
1735	 3.89351899409999 
1736	 0.520153666176229 
1737	-3.23861344628141E-02 
1738	-2.17813532800464 
1739	-3.09025092238941 
1740	-0.237972092938424 
1741	 1.45464481803196 
1742	 1.76454957943305 
1743	 2.46128058860475 
1744	 4.57280788988795 
1745	 5.10887583213193 
1746	 4.08676918394797 
1747	 3.87745910060859 
1748	 4.06577036475963 
1749	 3.5459440782646 
1750	 2.61223322791617 
1751	 1.6929208173655 
1752	 0.276924797132245 
1753	-0.868609036760405 
1754	-2.49576501712762 
1755	-0.208658308739229 
1756	 13.1839740076109 
1757	 7.12391099315259 
1758	-7.89145747586053 
1759	-9.95426845655052 
1760	 3.63378879016989 
1761	 0.839100017934738 
1762	 6.36178384577545 
1763	 20.1221913680651 
1764	 17.5658564345722 
1765	 3.80143072877781 
1766	-4.88827734121778 
1767	-31.7489897604946 
1768	-38.7616602358197 
1769	-37.0410147390665 
1770	-25.2614755739969 
1771	-22.2456059311423 
1772	-1.04212712724495 
1773	 9.21750483906889 
1774	 12.716667202368 
1775	 18.1884856910281 
1776	 25.9390394997368 
1777	 26.1982831195737 
1778	 20.5826343822526 
1779	 17.4774694266257 
1780	 11.0173631416184 
1781	 12.9989172358179 
1782	 22.9912323835145 
1783	 15.2940054886803 
1784	 15.3019231793454 
1785	 15.3186405261298 
1786	 27.2357695813486 
1787	 22.3921410779384 
1788	 20.6586992161884 
1789	 19.6559790137901 
1790	 10.3289828390402 
1791	 3.63293762014107 
1792	 6.72540780365457 
1793	 9.23442715337604 
1794	 11.6037623991087 
1795	 6.85687976870853 
1796	 20.4870847863315 
1797	 27.5720398266982 
1798	 19.1036594494184 
1799	 18.2378590821292 
1800	 3.63661117656675 
1801	-23.1380505958056 
1802	-31.404690715564 
1803	-34.6609143951521 
1804	-37.4584306142778 
1805	-34.8643488685548 
1806	-17.6026858979528 
1807	-6.55696349561932 
1808	 10.8377762569827 
1809	 22.6453436063157 
1810	 22.7849887050397 
1811	 38.4221075821585 
1812	 38.0151857908902 
1813	 13.8886969944945 
1814	 10.8080712821301 
1815	 22.5551784744222 
1816	 18.0463460779664 
1817	 7.43732784975306 
1818	 7.58555325882517 
1819	-2.08809474151161 
1820	-14.7793520567982 
1821	-15.2440984439 
1822	 4.85145130069712 
1823	 5.40491516669341 
1824	-3.73318437464481 
1825	-4.00530640130203 
1826	-12.4653296872372 
1827	-9.05633221338859 
1828	 12.7450091512305 
1829	 29.6598648914372 
1830	 30.4207343508641 
1831	 25.7243746562691 
1832	 19.4374666498838 
1833	-6.88546928576468 
1834	-17.4328583768834 
1835	-20.4703097704899 
1836	-23.5188098173592 
1837	-23.5800435691324 
1838	-22.900867027077 
1839	-16.1119843372131 
1840	-17.8097352634121 
1841	-11.60270827165 
1842	 1.97209222893596 
1843	 2.01889540481799 
1844	-1.41279046192442 
1845	-3.20084846888552 
1846	-17.5343186951963 
1847	-21.5799523572388 
1848	-21.1515718915937 
1849	-17.6175181712505 
1850	-8.88568002300776E-02 
1851	 20.2718706294101 
1852	 27.7642594761385 
1853	 41.5477085202394 
1854	 41.2909268707702 
1855	 12.9944993242235 
1856	 4.67516093452799 
1857	-1.22778701162371 
1858	 1.32457332146411 
1859	 5.6355033664297 
1860	 11.8976016233747 
1861	 19.1352526170274 
1862	 6.60226564458153 
1863	 4.56732575780628 
1864	 4.6256395987938 
1865	 4.89428925894297 
1866	 15.5192581353872 
1867	 15.7875041353614 
1868	 8.80820843656406 
1869	 1.54954366078282E-02 
1870	-6.5192867308964 
1871	-19.2844459021081 
1872	-12.4453804396922 
1873	-1.22389178332649 
1874	 10.9392956555654 
1875	 28.2601665746109 
1876	 33.7311401789548 
1877	 33.747746561106 
1878	 27.2040593610824 
1879	 10.513534654005 
1880	-9.33248265136129 
1881	-23.4156247665713 
1882	-38.5601618399927 
1883	-42.673776107869 
1884	-35.5382378142245 
1885	-27.028331901156 
1886	-18.5632850339606 
1887	-8.8451228886236 
1888	 5.8285527144322 
1889	 13.1550318644536 
1890	 13.0463281946882 
1891	 15.6227324279941 
1892	 9.6058320520797 
1893	-12.0707118853499 
1894	-26.2589924759976 
1895	-29.2193037192723 
1896	-34.6392467519562 
1897	-34.1898630729647 
1898	-24.1960918595774 
1899	-17.4622997177405 
1900	-14.4956134763283 
1901	 5.10123571701977 
1902	 15.4435082173029 
1903	 31.6364746868239 
1904	 50.3508008022846 
1905	 46.2849042299806 
1906	 36.1113393954636 
1907	 25.3093319187335 
1908	 18.1537548875407 
1909	 3.59644073870216 
1910	 0.587185648897061 
1911	 8.65390037057747 
1912	 14.4614905199741 
1913	 28.1266207121509 
1914	 22.2654489928658 
1915	 33.8913392816403 
1916	 38.3966718485785 
1917	 30.5190662230619 
1918	 31.8130641579118 
1919	 26.5396069180118 
1920	 8.6991714328436 
1921	 3.51161685239679 
1922	 5.75873684116656 
1923	 3.62049996753924 
1924	 0.841153001146101 
1925	 2.39012638049359 
1926	 8.03973100736532 
1927	 7.31661326970557 
1928	 10.3182773849559 
1929	 13.3273138331929 
1930	 11.61490771447 
1931	 0.135878185924648 
1932	-0.880342594275328 
1933	 4.56416806818317 
1934	 4.29654260131656 
1935	 3.67206386919929 
1936	 3.88825133872049 
1937	 4.0581710868046 
1938	-0.655369592938686 
1939	-10.2920142162218 
1940	-12.6605642930765 
1941	-15.0029867325001 
1942	-23.9649305737147 
1943	-20.6842240413385 
1944	-2.77015288920298 
1945	 2.46360026001841 
1946	 7.02359515468838 
1947	 10.1055398990251 
1948	 8.53987928727654 
1949	 6.29705566142283 
1950	 1.49437629866574 
1951	-0.345791937862886 
1952	-1.08417810263793 
1953	-8.58233335717704 
1954	-4.95288021922387 
1955	 7.24525818933565 
1956	 13.6497888960483 
1957	 21.5820349502532 
1958	 29.638345318745 
1959	 42.8461136596648 
1960	 43.2250168685057 
1961	 38.8609913239453 
1962	 33.2820916505332 
1963	 15.6352442327482 
1964	 1.36726667534711 
1965	-21.2963806672052 
1966	-27.3287705593528 
1967	-29.4879112909003 
1968	-28.7646556501892 
1969	-23.4400657004224 
1970	 0.202946265268395 
1971	 6.92022337776124 
1972	 2.97054440397755 
1973	 7.97395164290479 
1974	 15.4781350748529 
1975	 17.7551236531878 
1976	 22.4392823663157 
1977	 25.3444510589376 
1978	 22.9485299674357 
1979	 19.7381953093781 
1980	 15.4828467334494 
1981	 11.5187321345829 
1982	 7.72607165995756 
1983	 1.56657667714215 
1984	-2.06331093503706 
1985	-1.30896930484854 
1986	-4.375689375197 
1987	-17.3114061375489 
1988	-18.3438825341859 
1989	-10.2205537793026 
1990	-6.9984954072902 
1991	 6.41236115603087E-02 
1992	 9.90523910409403 
1993	 12.5543172365064 
1994	 7.67939226284773 
1995	 6.44390351449732 
1996	 5.09181284274217 
1997	 5.22047281173389 
1998	 4.21207194474359 
1999	 6.97617941628946 
2000	 13.4746608076304 
2001	 17.8184012294708 
2002	 27.7327153735045 
2003	 28.7011763433983 
2004	 28.1715781061064 
2005	 18.0980942527445 
2006	 5.07044242897006 
2007	-7.95175508466544 
2008	-22.6547930057949 
2009	-17.9755866518907 
2010	-9.01157074535007 
2011	 15.7641202018147 
2012	 25.9079662672548 
2013	 40.1359718137961 
2014	 42.4851781377305 
2015	 28.0219122379567 
2016	 25.970883903217 
2017	 30.1517751659427 
2018	 32.6396742435041 
2019	 46.8655905851491 
2020	 37.5184922002734 
2021	 25.5977597775338 
2022	 7.79891530405036 
2023	-4.62838036689917 
2024	-1.41058017840019 
2025	 0.454415593848601 
2026	 17.4144888822215 
2027	 16.1922874920325 
2028	 2.57273125545773 
2029	-0.226412085545554 
2030	-7.51120941174551 
2031	-5.1521227669955 
2032	 8.01699477572356 
2033	 21.4863774928207 
2034	 26.0905956319275 
2035	 31.3429145446492 
2036	 24.067329045565 
2037	 10.7341585460932 
2038	 6.20665814973865 
2039	-2.36009133173037 
2040	-4.03568400253435 
2041	-1.35202522412521 
2042	 2.11059133233295 
2043	 11.3303614373871 
2044	 14.4209928382926 
2045	 16.9704265603862 
2046	 17.4358364660362 
2047	 10.0410971197235 
2048	 8.0049373058338 
2049	 6.8542664533058 
2050	 12.7221347645981 
2051	 12.5213690619942 
2052	 4.61911767474118 
2053	-1.30697873342081 
2054	-16.59432098564 
2055	-30.5345862716668 
2056	-36.2299348721502 
2057	-52.5109488479618 
2058	-59.7970166848068 
2059	-57.6083261648943 
2060	-44.0415864916647 
2061	-36.0729682618028 
2062	-17.5156404098083 
2063	-10.4413080602428 
2064	-8.06740506776101 
2065	-14.3671845187664 
2066	-17.7364322322025 
2067	-18.3372346430951 
2068	-25.4122334809714 
2069	-17.6652398468651 
2070	-11.8814488092563 
2071	-5.72748484524334 
2072	 10.1375900259972 
2073	 13.4746870931104 
2074	 17.1851158884909 
2075	 20.0934664153095 
2076	 20.8871688034762 
2077	 18.6029935418243 
2078	 18.4595276607411 
2079	 17.7989023984 
2080	 18.5879700411899 
2081	 20.1422453638177 
2082	 19.449715120418 
2083	 24.174198915171 
2084	 22.5990574626547 
2085	 16.9760444766466 
2086	 10.9196504932505 
2087	 2.97149489485932 
2088	-0.356213596779803 
2089	-0.475632830515332 
2090	 5.72680288717496 
2091	 14.590801722516 
2092	 15.0286556853171 
2093	 10.1974540367116 
2094	 6.92705198862696 
2095	 2.40030701770987 
2096	-14.0882692725666 
2097	-14.9752018393594 
2098	-6.39406420959886 
2099	 1.12189566951542 
2100	 9.49958946195409 
2101	 28.6326755512135 
2102	 33.9553893863066 
2103	 30.1064712236416 
2104	 25.5432725724009 
2105	 22.2486627101791 
2106	 19.4079815984703 
2107	 8.55399125225939 
2108	 4.14442051101553 
2109	-3.95430109481501 
2110	-11.3423852045889 
2111	 0.357249117421214 
2112	 3.3231412821221 
2113	 2.75075829012769 
2114	 5.41089852587881 
2115	 4.61935007757566 
2116	 2.13021944545079 
2117	 6.22227567510763 
2118	 4.85676166963957 
2119	-3.90824043738283 
2120	-6.46134487643464 
2121	-8.7931254968667 
2122	-9.37824404479647 
2123	-1.72283793553135 
2124	 7.88588142581732 
2125	 17.1809027576445 
2126	 20.6407920394702 
2127	 17.2942962186201 
2128	 7.32928362221409 
2129	 1.15732581532243 
2130	-3.60794112770632 
2131	-7.775795250537 
2132	-6.85314995304463 
2133	-10.6125620401248 
2134	-13.9189179791025 
2135	-18.6036921549903 
2136	-32.8831379095725 
2137	-31.092804859138 
2138	-20.6744654420176 
2139	-11.6872713636302 
2140	 9.56697240747257 
2141	 21.0471818364914 
2142	 16.6641695376621 
2143	 10.4928060174606 
2144	-5.3269727473104 
2145	-8.78754558660571 
2146	 0.208362421715214 
2147	 5.04793736221256 
2148	 15.029475021737 
2149	 19.7751694105075 
2150	 17.5564262584129 
2151	 20.3556686471152 
2152	 13.476592731069 
2153	 8.89181435992604 
2154	 6.2201609249714 
2155	-0.888559680381655 
2156	 10.5246877074208 
2157	 16.1080218009446 
2158	 23.0074473478992 
2159	 43.6781055576151 
2160	 47.9946176152026 
2161	 43.7480194659426 
2162	 36.6643781812272 
2163	 24.0500375325086 
2164	-6.47415251094436 
2165	-25.0561919665546 
2166	-31.6566205093156 
2167	-30.5352094617379 
2168	-16.5400465752329 
2169	-3.24066997850235 
2170	 2.53609787765907 
2171	 12.4941589424133 
2172	 12.7092561246305 
2173	 5.16506290965048 
2174	 7.48194992196254 
2175	 0.551171049986256 
2176	 4.81031470233801 
2177	 17.7827707224328 
2178	 20.5089292419157 
2179	 20.9066944275509 
2180	 8.92125680895803 
2181	-2.21758448059762 
2182	-12.1913931962969 
2183	-19.5597768743505 
2184	-19.5775519374055 
2185	-22.8863544658268 
2186	-32.2801698640987 
2187	-31.5901962883192 
2188	-26.3586824432384 
2189	-20.2254196539774 
2190	-12.2095832000057 
2191	-7.75146478180135 
2192	-6.01995443372728 
2193	-16.6662749818666 
2194	-24.6756183449467 
2195	-19.0273738546591 
2196	-19.9634856360656 
2197	-14.7968373063018 
2198	-11.6365245492477 
2199	-8.40481646335455 
2200	 9.95477050499102 
2201	 20.739453639196 
2202	 27.9668788726585 
2203	 26.4492056270912 
2204	 10.7688228368474 
2205	-4.33040230909629 
2206	-12.5356927599642 
2207	-13.2064977019088 
2208	-12.0756365401755 
2209	-7.63678091536305 
2210	-2.94355030634803 
2211	 7.49059963941389 
2212	 11.9206474373858 
2213	 11.3536470930011 
2214	 12.8212114121952 
2215	 11.992751736332 
2216	 13.1353182985095 
2217	 20.8631065573008 
2218	 20.520374630716 
2219	 17.7115709706707 
2220	 9.94498160382968 
2221	-0.509818785636592 
2222	 0.784420332211391 
2223	 4.43287717558567 
2224	 9.28487692177652 
2225	 22.1906647687143 
2226	 22.50401588038 
2227	 17.2894412990248 
2228	 9.12036854732246 
2229	-14.6511594422879 
2230	-23.5935019714512 
2231	-15.740698298413 
2232	-6.72210735793016 
2233	 9.62624376877436 
2234	 15.4902209129722 
2235	 9.99077543525356 
2236	 6.66478856539446 
2237	 4.28973589464021 
2238	-2.72029437698739 
2239	-0.945807362805146 
2240	 8.41892284805081 
2241	 14.9456536395483 
2242	 34.8916154805315 
2243	 39.7784094579832 
2244	 32.493682741839 
2245	 27.3311622151661 
2246	 8.69776308305616 
2247	 7.06194299255366 
2248	 17.7247632090044 
2249	 27.1473368802191 
2250	 51.7944718415182 
2251	 59.767285421484 
2252	 56.6994678515959 
2253	 55.2572071667264 
2254	 41.8859631775705 
2255	 35.4253540165859 
2256	 33.5767792697194 
2257	 34.1300271581218 
2258	 26.0134171339408 
2259	 25.4926754789653 
2260	 21.148180799029 
2261	 6.61130628860069 
2262	-2.07233535205004 
2263	-10.1275555098862 
2264	-20.8948795194704 
2265	-15.1880045409296 
2266	-10.1072078280305 
2267	-6.49510669927346 
2268	 0.673798752426757 
2269	 0.326961235448759 
2270	 0.371606085199746 
2271	 6.88558331291979 
2272	 10.6197612100915 
2273	 7.05328740468287 
2274	 2.5724934105505 
2275	-6.87200543435699 
2276	-11.2263440489945 
2277	-16.2226510211712 
2278	-10.9132268982572 
2279	-1.30328830985813 
2280	 0.6258952745913 
2281	 19.6925922113574 
2282	 20.5336134580143 
2283	 15.3728300854032 
2284	 22.4568523131046 
2285	 20.2245420171191 
2286	 18.9622528262176 
2287	 24.9555721299235 
2288	 17.5086167697551 
2289	-6.26599993177397 
2290	-14.4744221239532 
2291	-19.2095417396775 
2292	-20.6097586056563 
2293	-10.8112937194598 
2294	-7.82350684957243 
2295	-15.223714630951 
2296	-9.16040635674393 
2297	 9.94026507245618 
2298	 13.7636487125436 
2299	 21.2913220465881 
2300	 21.4795598040737 
2301	-0.622150043692434 
2302	-3.45190468852115 
2303	 3.59952985745831 
2304	 4.39512324046283 
2305	 13.3238809820025 
2306	 15.8025144349455 
2307	 9.30357532010114 
2308	 10.4297267350148 
2309	 15.0520597109035 
2310	 16.1637336311419 
2311	 17.2505304725243 
2312	 18.0380254435166 
2313	 11.7778450244262 
2314	 7.72566541106207 
2315	 9.34536084461274 
2316	 13.5235428003826 
2317	 13.6144301528494 
2318	 10.1891986340982 
2319	 10.9222729409829 
2320	 6.44927750218625 
2321	 3.98776943120776 
2322	 11.9736756682943 
2323	 5.32336215676294 
2324	-5.71748039568011 
2325	-3.73743837304145 
2326	-14.0756663605428 
2327	-15.6565410387483 
2328	-2.35323791192099 
2329	 1.83683099871276 
2330	 7.52924274251528 
2331	 19.0160123836597 
2332	 26.39400991704 
2333	 29.1413440267799 
2334	 38.0808447573228 
2335	 36.0062420730736 
2336	 26.2622520904666 
2337	 30.9867409972518 
2338	 30.8037454307953 
2339	 28.7580833691962 
2340	 32.7256443354208 
2341	 29.1890941225015 
2342	 19.9845434303297 
2343	 9.30336237622631 
2344	-4.53119399365894 
2345	-18.9867439549872 
2346	-32.5810644634263 
2347	-38.0676616130536 
2348	-33.8302103685266 
2349	-38.4468062630103 
2350	-39.4307737807659 
2351	-39.9705814295618 
2352	-40.7316186319421 
2353	-30.2035521810475 
2354	-22.0592324844304 
2355	-17.0725893032344 
2356	-19.5643185687526 
2357	-20.436260513674 
2358	-21.8352397007935 
2359	-13.9346919627012 
2360	-1.1367912280323 
2361	-0.727243916625419 
2362	 1.37843510546244 
2363	-0.880526819726306 
2364	-3.80731660245563 
2365	 0.444323510475784 
2366	 5.84734635725714 
2367	 4.63137086361699 
2368	 1.72471472244803 
2369	-1.97215396207126 
2370	-5.51874332124449 
2371	-1.53568082487968 
2372	-2.26962429870834 
2373	-5.76509044163483 
2374	-10.6297035189117 
2375	-16.9439907033038 
2376	-12.1942362336028 
2377	-3.82378720852738 
2378	 1.93805291403666 
2379	 7.78524250075473 
2380	 10.0067317808934 
2381	 8.29471024468056 
2382	 2.84519876842022 
2383	-6.82284729316368 
2384	-16.7355572304447 
2385	-18.3252494202514 
2386	-14.0435951087104 
2387	-7.83156831478255 
2388	 11.2490659613108 
2389	 21.8974262210934 
2390	 21.156978325059 
2391	 34.0879057479625 
2392	 37.0763059489132 
2393	 28.0957174906548 
2394	 28.5370410377138 
2395	 22.4440034696398 
2396	 7.40330144417195 
2397	 6.86242550642666 
2398	 4.13410469036924 
2399	-6.49525122816209 
2400	-4.71550041955136 
2401	-10.9757857221187 
2402	-19.4734732038357 
2403	-22.4230108091551 
2404	-30.7144249505385 
2405	-30.2932566676581 
2406	-22.6349676604184 
2407	-23.6041466781741 
2408	-30.2643471596862 
2409	-25.6076045118768 
2410	-29.3278332918194 
2411	-26.7311726391106 
2412	-2.79945277190735 
2413	 6.10953733968517 
2414	 11.3484580502297 
2415	 12.0280938967061 
2416	 0.247730565114044 
2417	-16.8011726294617 
2418	-33.8070059507724 
2419	-34.2012702846615 
2420	-34.8643785646078 
2421	-31.1565927308195 
2422	-23.3971698213911 
2423	-33.4716414395635 
2424	-40.3702387606531 
2425	-45.1729806109211 
2426	-42.9546127791342 
2427	-36.0244183078128 
2428	-31.1225580421937 
2429	-22.5183701976668 
2430	-25.4739349619519 
2431	-22.4953010170722 
2432	-17.3761550193813 
2433	-24.4159844492597 
2434	-29.9889347372376 
2435	-32.7384043300712 
2436	-29.4932995184203 
2437	-17.1510882273536 
2438	-3.38658508955361 
2439	 8.59556520213473 
2440	 15.1133378049497 
2441	 12.1547341636912 
2442	 3.88821976465631 
2443	-10.7261339058812 
2444	-19.4108847351637 
2445	-15.48957329806 
2446	-3.9019062364771 
2447	 12.0543339342314 
2448	 14.0571285503196 
2449	 10.8755175336302 
2450	 3.91619162341926 
2451	 1.81676979367826 
2452	 4.41209707500357 
2453	-4.27169065461029 
2454	-4.71072325433079 
2455	-9.18266795216465 
2456	-18.0281925459944 
2457	-13.7675740049497 
2458	-15.0917332893348 
2459	-25.9885857095201 
2460	-29.1286955460689 
2461	-36.8088059862299 
2462	-44.7545454185635 
2463	-43.5378480782982 
2464	-35.3870292810808 
2465	-17.1767893276405 
2466	-12.273761533691 
2467	-7.7119166830555 
2468	-20.2278042284619 
2469	-24.6037079940323 
2470	-26.9653791987214 
2471	-25.4390776788565 
2472	-17.3584544128635 
2473	-17.9995320368339 
2474	-8.3086868674283 
2475	 4.5817918757295 
2476	 11.6192600648191 
2477	 32.4646248058152 
2478	 43.0435960368454 
2479	 36.2259611364918 
2480	 29.876057625838 
2481	 18.6489911227883 
2482	-6.17026928657363 
2483	-12.478467613141 
2484	-8.85045165085863 
2485	-20.9777819531221 
2486	-10.7568439108879 
2487	-2.37333018909604 
2488	 0.500565487014359 
2489	 14.6758143485902 
2490	 20.5813678168778 
2491	 22.0785343225124 
2492	 15.2411639767745 
2493	 4.71433802300993 
2494	-1.70738725789503 
2495	 2.13868677950977 
2496	 12.111655618405 
2497	 21.5604427030036 
2498	 34.1525474097728 
2499	 28.8641883249364 
2500	 14.0598292735164 
