Wavelength	Reference_BlackABS00000.asd
350	 21.6309280010783 
351	 22.3245657845802 
352	 22.7378351315637 
353	 24.9618484117801 
354	 25.7995056542652 
355	 26.5884300971764 
356	 28.3873019016998 
357	 29.1085446819081 
358	 29.7278328134542 
359	 30.6425236508095 
360	 31.7900028339768 
361	 33.1562405757198 
362	 34.2624120059656 
363	 34.8670073520622 
364	 36.2253431497444 
365	 37.0508816319419 
366	 37.2795023056539 
367	 38.5029304323428 
368	 38.6829255506353 
369	 38.7058910041716 
370	 40.1533334895839 
371	 42.3839768021639 
372	 44.1366537592087 
373	 44.8362605563702 
374	 45.1609678113567 
375	 45.5288655652186 
376	 46.1849291956203 
377	 47.3068493642511 
378	 49.8389241580598 
379	 52.368223865519 
380	 53.9856034196041 
381	 56.5195755745035 
382	 57.261449759267 
383	 57.2105698164246 
384	 60.5398702841922 
385	 64.3159074932205 
386	 67.596318397888 
387	 70.268110706182 
388	 73.8910820737052 
389	 77.2224720345336 
390	 80.2740962272924 
391	 85.2447803264933 
392	 89.8285126356363 
393	 95.0851415342479 
394	 102.881451274183 
395	 109.205328647602 
396	 114.584717217164 
397	 120.416773530113 
398	 128.877949220184 
399	 137.363555465784 
400	 146.573654198444 
401	 159.605439480183 
402	 172.173362305497 
403	 183.775768636505 
404	 195.580202441162 
405	 211.54101387361 
406	 229.777858661412 
407	 248.678750230871 
408	 267.208985893136 
409	 287.372269858838 
410	 309.281303152502 
411	 332.238886350215 
412	 355.752352982903 
413	 381.835197136261 
414	 410.896063198333 
415	 438.077781088952 
416	 465.514210797266 
417	 493.654136197663 
418	 521.575708158351 
419	 549.423669438518 
420	 578.295885616871 
421	 608.708980801054 
422	 636.520192901599 
423	 663.768524545734 
424	 691.401518029843 
425	 717.569610078224 
426	 742.961943970153 
427	 767.549638068264 
428	 791.107336995766 
429	 815.301908499936 
430	 839.48279915301 
431	 862.50913524719 
432	 882.980041692756 
433	 903.921477839142 
434	 925.563180559689 
435	 944.548873416211 
436	 960.590140229502 
437	 976.378089052257 
438	 995.260367104095 
439	 1013.39130461821 
440	 1029.14359234374 
441	 1042.89098182207 
442	 1059.63349474537 
443	 1075.51644450301 
444	 1090.16457196797 
445	 1106.22920798846 
446	 1121.22404743327 
447	 1135.64277027711 
448	 1150.60620850875 
449	 1165.71362424356 
450	 1179.11319430216 
451	 1190.86472790881 
452	 1205.46342971826 
453	 1219.65762777961 
454	 1233.18990193224 
455	 1247.61341558409 
456	 1261.82672756179 
457	 1275.73914643089 
458	 1289.94266298734 
459	 1307.33736905869 
460	 1324.28969888312 
461	 1339.6527769572 
462	 1357.0837980902 
463	 1376.2636572338 
464	 1395.27526359731 
465	 1411.42828349896 
466	 1430.88990275839 
467	 1452.1952888602 
468	 1473.22561022539 
469	 1496.04063068272 
470	 1519.13583559177 
471	 1542.27628051304 
472	 1567.3811320645 
473	 1592.47002150567 
474	 1618.39281795217 
475	 1647.10866050324 
476	 1676.54102252189 
477	 1706.37181094915 
478	 1736.96056124096 
479	 1770.12634426331 
480	 1803.38530772814 
481	 1836.1481498678 
482	 1870.37619552612 
483	 1906.292244213 
484	 1943.89184590463 
485	 1982.80823884475 
486	 2021.11698092726 
487	 2061.12993207436 
488	 2104.30438380804 
489	 2146.80420185401 
490	 2190.51557144664 
491	 2236.68006316596 
492	 2285.9549048358 
493	 2335.05843572207 
494	 2383.73123346478 
495	 2433.23207574396 
496	 2485.89798554533 
497	 2539.84255397901 
498	 2593.55712974175 
499	 2649.01590508332 
500	 2706.68485268891 
501	 2765.86885414438 
502	 2824.37240325417 
503	 2882.17493268412 
504	 2940.92895604257 
505	 3002.78064557788 
506	 3064.46123669456 
507	 3127.13026178761 
508	 3191.75246655803 
509	 3256.19702015488 
510	 3321.64510411417 
511	 3388.60667177622 
512	 3456.63236669292 
513	 3527.00731877072 
514	 3599.293943913 
515	 3672.40621799986 
516	 3748.32255849462 
517	 3823.12901179218 
518	 3894.85191637956 
519	 3971.94407175336 
520	 4048.9888915734 
521	 4124.69175603954 
522	 4203.95549254927 
523	 4284.11907349467 
524	 4364.14761796954 
525	 4443.65420566525 
526	 4523.84647006864 
527	 4605.23697135853 
528	 4687.3127842669 
529	 4765.75559879226 
530	 4846.34427185317 
531	 4930.11219741096 
532	 5010.15909670624 
533	 5089.22981156361 
534	 5168.43254027831 
535	 5248.34688272889 
536	 5327.80341916178 
537	 5406.07932810353 
538	 5482.51154394686 
539	 5555.75629849329 
540	 5629.7407265542 
541	 5705.52966370504 
542	 5778.50419734395 
543	 5852.71850567153 
544	 5926.59048751441 
545	 5995.33081362391 
546	 6063.81787139944 
547	 6132.98832084349 
548	 6202.41102459917 
549	 6269.83953405867 
550	 6335.74313021882 
551	 6400.48108725485 
552	 6463.61695855514 
553	 6526.51267394868 
554	 6588.43079165765 
555	 6647.00123041483 
556	 6703.01966473258 
557	 6758.01989036035 
558	 6812.87435655622 
559	 6862.01433471196 
560	 6910.24109303157 
561	 6958.82027982808 
562	 6998.14422468636 
563	 7031.29232078526 
564	 7059.40567910686 
565	 7082.27827074482 
566	 7098.85080937292 
567	 7108.78916727258 
568	 7112.10944990187 
569	 7109.15028179971 
570	 7100.011302822 
571	 7086.41302791469 
572	 7075.75075445858 
573	 7059.25972347413 
574	 7035.41938329577 
575	 7011.51343508304 
576	 6979.45662995978 
577	 6940.39621764025 
578	 6899.03556876699 
579	 6853.51867574227 
580	 6805.72787498859 
581	 6757.70259383236 
582	 6708.6430038712 
583	 6668.99814204729 
584	 6637.9665547222 
585	 6596.6141861777 
586	 6557.36992418078 
587	 6519.1680826678 
588	 6475.50965047869 
589	 6439.45564797873 
590	 6409.62684075979 
591	 6383.33042674351 
592	 6367.69214481936 
593	 6358.62204286255 
594	 6352.05203932778 
595	 6343.09498477548 
596	 6344.36492626179 
597	 6360.54037383946 
598	 6391.01444635252 
599	 6422.51686182126 
600	 6452.89440258789 
601	 6484.46457510448 
602	 6525.41397200732 
603	 6564.46800764863 
604	 6596.5305480783 
605	 6634.3801664538 
606	 6674.06713542649 
607	 6720.97946629801 
608	 6789.33257330383 
609	 6865.63720092912 
610	 6949.26054193551 
611	 7042.20002451859 
612	 7134.70445854347 
613	 7224.51321424746 
614	 7309.94703264313 
615	 7386.61727959667 
616	 7460.2453556182 
617	 7533.01024810491 
618	 7602.57791577048 
619	 7675.97754798321 
620	 7752.94545334223 
621	 7830.04496813739 
622	 7908.04259532882 
623	 7988.58510537657 
624	 8071.95250033465 
625	 8152.87964793219 
626	 8231.9981578257 
627	 8309.56949242749 
628	 8385.11342790447 
629	 8457.65715096944 
630	 8526.10349884215 
631	 8589.45687929678 
632	 8651.73223477505 
633	 8709.32608054534 
634	 8759.60895832869 
635	 8813.72383290398 
636	 8866.37064085369 
637	 8914.41661821909 
638	 8960.6100168795 
639	 9006.55464000938 
640	 9052.47385331507 
641	 9097.51729318003 
642	 9151.42675949924 
643	 9207.56021701738 
644	 9256.88479137591 
645	 9309.79101344314 
646	 9364.86133830581 
647	 9420.57864795069 
648	 9478.36971692904 
649	 9535.36459134364 
650	 9592.80127551977 
651	 9656.15806549184 
652	 9720.52970480419 
653	 9786.89487970931 
654	 9857.497517494 
655	 9927.26606295941 
656	 9996.25898403451 
657	 10065.678193186 
658	 10137.6106483303 
659	 10212.0985026733 
660	 10288.5436718332 
661	 10365.3130529894 
662	 10445.6229571876 
663	 10527.2815707339 
664	 10606.0299912715 
665	 10685.7001507816 
666	 10766.4086236057 
667	 10848.486849483 
668	 10935.6424385008 
669	 11025.6543109745 
670	 11116.7491628118 
671	 11207.4390031851 
672	 11303.0537583002 
673	 11401.5514210209 
674	 11497.1068304416 
675	 11598.0852180204 
676	 11700.391837438 
677	 11800.080788604 
678	 11908.0802064016 
679	 12016.2770373158 
680	 12121.4002692562 
681	 12231.6934040557 
682	 12340.8088958869 
683	 12449.1054032902 
684	 12561.1806215269 
685	 12674.2282942238 
686	 12788.2200369586 
687	 12903.40416646 
688	 13017.6109516214 
689	 13132.8457389767 
690	 13250.1937145266 
691	 13368.5647745603 
692	 13483.5853136345 
693	 13596.3662539527 
694	 13712.8708998686 
695	 13821.4759924337 
696	 13926.411835829 
697	 14035.3897539244 
698	 14142.3290547539 
699	 14246.5323326886 
700	 14347.5898898311 
701	 14443.9541313218 
702	 14538.8356996561 
703	 14631.6920256959 
704	 14718.0451022886 
705	 14805.8939578398 
706	 14890.3137691554 
707	 14963.9064053597 
708	 15041.1189762151 
709	 15116.4112558504 
710	 15184.725587976 
711	 15250.0123563464 
712	 15311.6846555084 
713	 15370.7245063473 
714	 15430.1285912798 
715	 15485.7437213021 
716	 15537.6517343392 
717	 15588.0898395799 
718	 15643.6092898171 
719	 15695.900684286 
720	 15739.4230839557 
721	 15784.7259618152 
722	 15826.5119610281 
723	 15864.8065291832 
724	 15906.4198978446 
725	 15949.3453133166 
726	 15993.8284954572 
727	 16040.0235648603 
728	 16079.9993182046 
729	 16119.4671249258 
730	 16162.6386018048 
731	 16199.9668388352 
732	 16241.3316161243 
733	 16288.0856384488 
734	 16330.3300587228 
735	 16368.4666948239 
736	 16403.4573314813 
737	 16436.7043739085 
738	 16463.9351263048 
739	 16488.4980294024 
740	 16513.5424199427 
741	 16537.0577338773 
742	 16559.5573909491 
743	 16580.4408227357 
744	 16597.1645673073 
745	 16616.1626875716 
746	 16632.9572922239 
747	 16639.8114519995 
748	 16653.4688383739 
749	 16665.7260374898 
750	 16669.0932822272 
751	 16672.7576519556 
752	 16673.7559572521 
753	 16671.9282756959 
754	 16671.0028268832 
755	 16668.8910468621 
756	 16663.7634406987 
757	 16653.2258969802 
758	 16631.6196581164 
759	 16598.2310599391 
760	 16559.9468666226 
761	 16544.7481913787 
762	 16536.0174983716 
763	 16525.1687609564 
764	 16512.7238678526 
765	 16498.5704679778 
766	 16481.7158128496 
767	 16460.5069614779 
768	 16429.6914877506 
769	 16397.3272287774 
770	 16368.606874259 
771	 16335.4010807248 
772	 16301.3103641898 
773	 16266.7538596627 
774	 16228.929627904 
775	 16191.0488168742 
776	 16153.4377516288 
777	 16115.155225962 
778	 16074.3376275929 
779	 16028.0079858815 
780	 15976.1344252952 
781	 15925.5047892989 
782	 15876.4268411766 
783	 15826.7091540611 
784	 15771.6992908369 
785	 15716.2357985859 
786	 15659.030595275 
787	 15598.6602475098 
788	 15543.3487984903 
789	 15486.0294435742 
790	 15424.37738338 
791	 15369.0550048269 
792	 15307.8019860948 
793	 15238.6782521219 
794	 15166.2473560368 
795	 15096.4567124924 
796	 15027.7365672154 
797	 14957.993142244 
798	 14892.2322695539 
799	 14826.570687309 
800	 14757.8540962114 
801	 14683.6121451338 
802	 14612.1541482325 
803	 14543.6917732114 
804	 14474.7314898283 
805	 14407.0087886125 
806	 14337.3069775651 
807	 14263.1024851448 
808	 14185.2512752045 
809	 14111.0275234595 
810	 14039.3909289077 
811	 13959.9234978924 
812	 13886.2468499116 
813	 13814.1915990837 
814	 13735.8307469202 
815	 13661.2614332386 
816	 13587.4156915966 
817	 13512.0430913179 
818	 13438.0009175542 
819	 13360.2404383814 
820	 13280.0191194453 
821	 13202.566416169 
822	 13118.0632623922 
823	 13032.3123312118 
824	 12952.2067777418 
825	 12873.1932291808 
826	 12796.627976602 
827	 12722.8759320528 
828	 12651.3510025192 
829	 12572.6363613877 
830	 12487.0433907543 
831	 12398.519929862 
832	 12300.3137355835 
833	 12200.4349059659 
834	 12106.1193427549 
835	 12017.4698693053 
836	 11936.5957750321 
837	 11864.8747863169 
838	 11802.9916694151 
839	 11749.6441496083 
840	 11699.8833096578 
841	 11647.846160606 
842	 11589.323371357 
843	 11521.0425502616 
844	 11445.1046125042 
845	 11371.4570905267 
846	 11298.147072948 
847	 11224.1744519049 
848	 11148.7631271863 
849	 11074.7317828422 
850	 10999.6938777445 
851	 10922.9881514401 
852	 10850.2146224773 
853	 10777.1003824079 
854	 10704.0936084497 
855	 10634.849287459 
856	 10563.973601719 
857	 10492.6442275097 
858	 10422.2496705172 
859	 10348.4034044749 
860	 10274.584104083 
861	 10202.2019316194 
862	 10129.7565969044 
863	 10059.3701497629 
864	 9990.08120291592 
865	 9920.24313236597 
866	 9851.94519860095 
867	 9782.6174165165 
868	 9711.43664600071 
869	 9641.55851015986 
870	 9573.75635186005 
871	 9506.88306791271 
872	 9438.84240516691 
873	 9372.62581875968 
874	 9306.17507709524 
875	 9237.0650785575 
876	 9163.51681225524 
877	 9090.43968831131 
878	 9020.27710988275 
879	 8953.31736170288 
880	 8884.49226893539 
881	 8816.36445352182 
882	 8751.56860175484 
883	 8684.87537035655 
884	 8622.10359903747 
885	 8561.8590487798 
886	 8493.9633927099 
887	 8425.19360643455 
888	 8357.87735855973 
889	 8292.79323716955 
890	 8229.45705533999 
891	 8164.27235953229 
892	 8096.97675769569 
893	 8033.07281450188 
894	 7965.97932501015 
895	 7896.92272444914 
896	 7829.98501705137 
897	 7765.98317338968 
898	 7700.9634339657 
899	 7633.97938881494 
900	 7571.50103591984 
901	 7507.06251423155 
902	 7441.73683395008 
903	 7379.58889431693 
904	 7316.4256479942 
905	 7253.27007446779 
906	 7191.09894275883 
907	 7129.24962159356 
908	 7067.27861014636 
909	 7003.96374687289 
910	 6937.95761365702 
911	 6872.19260891098 
912	 6808.11866770969 
913	 6746.32905014451 
914	 6686.33033043908 
915	 6626.22752059204 
916	 6564.77080598645 
917	 6501.45263463988 
918	 6439.9215549771 
919	 6377.74357965297 
920	 6313.66647160917 
921	 6253.43184719348 
922	 6192.91998640825 
923	 6131.11959686954 
924	 6069.39246218538 
925	 6009.75657602236 
926	 5951.80874438109 
927	 5894.26287478192 
928	 5835.29459026326 
929	 5773.54118701558 
930	 5708.79351678276 
931	 5642.0038446893 
932	 5577.06333745678 
933	 5512.90212302348 
934	 5448.79977002452 
935	 5388.4032628737 
936	 5329.41894459851 
937	 5271.17307211413 
938	 5214.04041764367 
939	 5156.49814469302 
940	 5098.5658810057 
941	 5040.55888181329 
942	 4982.7575601588 
943	 4924.33259137294 
944	 4866.0900398525 
945	 4809.70421197797 
946	 4753.07681822004 
947	 4697.14152602493 
948	 4642.74197357189 
949	 4589.59522530289 
950	 4535.39561068731 
951	 4480.83866857095 
952	 4428.18604544858 
953	 4376.82975406705 
954	 4325.14384242876 
955	 4272.70057889743 
956	 4222.11906517 
957	 4169.81772210479 
958	 4116.16123978066 
959	 4063.08228846099 
960	 4010.17876547636 
961	 3957.28518811417 
962	 3905.01975471772 
963	 3855.50769957004 
964	 3803.62853947634 
965	 3750.50434389629 
966	 6292.92692342663 
967	 6368.28128409759 
968	 6445.44358447325 
969	 6530.11581311901 
970	 6623.32572086495 
971	 6719.4668038649 
972	 6823.10179118808 
973	 6926.47973850462 
974	 7034.26631435938 
975	 7142.6859062961 
976	 7254.95840602444 
977	 7363.79699084214 
978	 7469.61982415448 
979	 7574.64897771188 
980	 7670.10282810684 
981	 7760.08840291484 
982	 7849.16876414383 
983	 7938.53120914723 
984	 8023.62371631073 
985	 8103.64796275595 
986	 8179.21984387414 
987	 8247.18904575507 
988	 8316.29151363924 
989	 8382.73032979305 
990	 8448.50082488465 
991	 8512.4007472205 
992	 8576.45429462691 
993	 8639.92841104192 
994	 8700.20809964349 
995	 8761.53543210462 
996	 8822.72433725204 
997	 8883.73645591605 
998	 8946.16512119239 
999	 9005.94154997826 
1000	 9065.96403582011 
1001	 9127.28083788276 
1002	 9189.86608032166 
1003	 9254.8699432149 
1004	 9319.44403775094 
1005	 9383.02867126643 
1006	 9446.44472106455 
1007	 9506.61733980907 
1008	 9564.2677749079 
1009	 9623.15319852608 
1010	 9681.55500643415 
1011	 9737.89050321327 
1012	 9796.79760236405 
1013	 9856.56944261296 
1014	 9915.052247476 
1015	 9969.69467367198 
1016	 10020.5964263093 
1017	 10073.8785648639 
1018	 10125.1226730163 
1019	 10177.5760361371 
1020	 10230.6169940994 
1021	 10277.5992646454 
1022	 10326.4470518235 
1023	 10377.8588724308 
1024	 10429.6409929693 
1025	 10483.5971325628 
1026	 10540.0475808171 
1027	 10593.8302430695 
1028	 10645.3955629923 
1029	 10699.5578878674 
1030	 10757.5394481395 
1031	 10818.6762165878 
1032	 10880.0079636219 
1033	 10939.4458913906 
1034	 10996.8813482232 
1035	 11049.2255512757 
1036	 11105.5156177346 
1037	 11161.7595673565 
1038	 11214.7775310831 
1039	 11272.16427722 
1040	 11326.7984587765 
1041	 11378.3770958521 
1042	 11430.1293921437 
1043	 11482.0728083852 
1044	 11532.9599644187 
1045	 11582.0318321722 
1046	 11629.9779317257 
1047	 11676.1127026635 
1048	 11722.9247835688 
1049	 11770.5042890091 
1050	 11815.7086749689 
1051	 11863.5245941229 
1052	 11906.8426396839 
1053	 11947.2237430546 
1054	 11991.0377040444 
1055	 12031.2784539979 
1056	 12069.6055915601 
1057	 12108.5275753518 
1058	 12144.4353242973 
1059	 12183.1774791359 
1060	 12225.4943684576 
1061	 12264.9611332322 
1062	 12303.7260099632 
1063	 12343.263417195 
1064	 12379.9103620653 
1065	 12417.404102714 
1066	 12459.5473892215 
1067	 12501.0506738467 
1068	 12545.4562106725 
1069	 12592.8414288599 
1070	 12638.2977609948 
1071	 12683.3593805938 
1072	 12726.5209949914 
1073	 12769.6615098199 
1074	 12818.0260222457 
1075	 12868.6773886868 
1076	 12921.6603684249 
1077	 12982.2716687212 
1078	 13036.4229494633 
1079	 13085.2719693615 
1080	 13141.9966524745 
1081	 13200.5813511078 
1082	 13259.8876057734 
1083	 13323.5445244038 
1084	 13388.1460516641 
1085	 13452.5474684557 
1086	 13519.504782528 
1087	 13588.4818498674 
1088	 13659.9742424041 
1089	 13733.6016820195 
1090	 13809.9449510156 
1091	 13892.0284293973 
1092	 13981.3878431769 
1093	 14069.7580264675 
1094	 14157.9845409244 
1095	 14255.0655311567 
1096	 14357.3204587123 
1097	 14462.2337601005 
1098	 14573.1979230108 
1099	 14687.0044308988 
1100	 14800.3555753252 
1101	 14921.7260862459 
1102	 15051.7206220964 
1103	 15183.4855101178 
1104	 15319.7124437706 
1105	 15459.0345503084 
1106	 15599.6714253238 
1107	 15745.4186842594 
1108	 15898.7769473026 
1109	 16054.8419669699 
1110	 16215.043352056 
1111	 16382.3377308462 
1112	 16549.1686879918 
1113	 16715.9486703422 
1114	 16889.5426134183 
1115	 17067.8448602745 
1116	 17248.5627963452 
1117	 17433.0107374707 
1118	 17621.54275116 
1119	 17810.4530801299 
1120	 18007.880752652 
1121	 18213.799490277 
1122	 18421.1343870912 
1123	 18636.3740749938 
1124	 18850.3304203397 
1125	 19063.1789456712 
1126	 19280.951017226 
1127	 19500.6568421485 
1128	 19722.7354187503 
1129	 19945.5865443289 
1130	 20173.8451539263 
1131	 20395.0745518567 
1132	 20614.9308401486 
1133	 20832.6960207528 
1134	 21046.3533108573 
1135	 21261.1850019221 
1136	 21476.9548127636 
1137	 21688.8735478803 
1138	 21899.7658537209 
1139	 22107.3331793919 
1140	 22312.2692594074 
1141	 22514.0605478608 
1142	 22713.0689529776 
1143	 22909.3892365149 
1144	 23102.0914725101 
1145	 23292.8725438393 
1146	 23480.8020018437 
1147	 23667.2265366521 
1148	 23851.6869206638 
1149	 24033.7315370435 
1150	 24214.6218230739 
1151	 24395.6068172382 
1152	 24570.1785708584 
1153	 24742.9038926138 
1154	 24909.0744937763 
1155	 25069.5495638852 
1156	 25226.2526752421 
1157	 25378.8713291865 
1158	 25526.4617742518 
1159	 25669.4885609303 
1160	 25807.6374510124 
1161	 25942.2316835942 
1162	 26069.3752358686 
1163	 26189.0432767093 
1164	 26306.3379011905 
1165	 26418.0871630628 
1166	 26525.6691908406 
1167	 26629.7809968412 
1168	 26730.5745459556 
1169	 26825.0971404703 
1170	 26915.515472007 
1171	 27000.9814231434 
1172	 27081.7701321298 
1173	 27159.4675245122 
1174	 27232.5964044497 
1175	 27301.9301074198 
1176	 27367.1877608625 
1177	 27430.29504303 
1178	 27488.7527533136 
1179	 27545.5220088593 
1180	 27600.7279652436 
1181	 27653.3060330401 
1182	 27701.4028449636 
1183	 27749.8859289914 
1184	 27797.3787013137 
1185	 27842.7530947453 
1186	 27885.2223937798 
1187	 27928.8394918091 
1188	 27974.4742269482 
1189	 28015.7563992457 
1190	 28055.2808498936 
1191	 28092.2483143989 
1192	 28132.515715065 
1193	 28166.9509965753 
1194	 28200.7295241498 
1195	 28236.0406083759 
1196	 28263.5655676102 
1197	 28281.3120627189 
1198	 28305.1998732685 
1199	 28329.551441399 
1200	 28350.932362983 
1201	 28374.5536427552 
1202	 28391.745113682 
1203	 28403.7424741755 
1204	 28414.9431549765 
1205	 28422.9194474191 
1206	 28430.2365112227 
1207	 28434.9034301914 
1208	 28439.6852383042 
1209	 28444.2268299877 
1210	 28446.8416077796 
1211	 28447.3587696725 
1212	 28448.5407506224 
1213	 28451.2791928065 
1214	 28451.0491126222 
1215	 28451.686102214 
1216	 28450.2172650702 
1217	 28446.9684510029 
1218	 28445.0947640665 
1219	 28441.3154374175 
1220	 28440.0320369729 
1221	 28436.0476884404 
1222	 28427.8531687391 
1223	 28424.8166387231 
1224	 28424.7751872092 
1225	 28420.4724040613 
1226	 28416.3007422046 
1227	 28413.0113033011 
1228	 28405.9057234843 
1229	 28403.8266078657 
1230	 28406.249933577 
1231	 28406.7556855219 
1232	 28406.6507686991 
1233	 28408.3075512231 
1234	 28412.6303377976 
1235	 28414.7974377183 
1236	 28415.9763610873 
1237	 28419.2863336343 
1238	 28421.4645573221 
1239	 28425.610079158 
1240	 28434.1757464769 
1241	 28443.3536555466 
1242	 28453.6412737946 
1243	 28465.4343430193 
1244	 28479.9218612973 
1245	 28498.9069965773 
1246	 28519.2413918931 
1247	 28539.2834014024 
1248	 28561.7715153976 
1249	 28582.2403858714 
1250	 28604.7634416683 
1251	 28629.0387166414 
1252	 28653.7075544475 
1253	 28679.6277437984 
1254	 28705.0433520191 
1255	 28728.5631304073 
1256	 28756.5885848805 
1257	 28786.7063938446 
1258	 28817.7459967337 
1259	 28853.1018492414 
1260	 28885.7233357952 
1261	 28918.4755605822 
1262	 28949.763902402 
1263	 28978.450406036 
1264	 29005.7220094269 
1265	 29027.8895773768 
1266	 29045.4673493774 
1267	 29060.2901454577 
1268	 29073.134125988 
1269	 29082.7739526213 
1270	 29086.6571741419 
1271	 29085.8391149142 
1272	 29080.9609921411 
1273	 29066.6113445238 
1274	 29047.2187352637 
1275	 29022.06907338 
1276	 28989.6189863503 
1277	 28956.3631431667 
1278	 28917.6723678018 
1279	 28873.9328420708 
1280	 28825.2725425158 
1281	 28773.0239054935 
1282	 28713.5802484646 
1283	 28655.671470279 
1284	 28593.1624523897 
1285	 28534.4096142233 
1286	 28477.6583466795 
1287	 28420.0978966858 
1288	 28363.2853305516 
1289	 28306.3923252148 
1290	 28249.051277781 
1291	 28190.8351186402 
1292	 28136.6672274557 
1293	 28088.8085728174 
1294	 28043.1302631896 
1295	 28002.7841584692 
1296	 27971.3476785908 
1297	 27945.4399211045 
1298	 27926.2257437872 
1299	 27911.340583596 
1300	 27900.3956354693 
1301	 27894.4045170809 
1302	 27894.0617186238 
1303	 27898.0175368832 
1304	 27907.624004636 
1305	 27920.5114374628 
1306	 27934.3217647755 
1307	 27954.0923671605 
1308	 27974.5245334432 
1309	 27993.8367524695 
1310	 28016.6005958073 
1311	 28041.0134728766 
1312	 28067.1178589447 
1313	 28095.7974484658 
1314	 28125.908124732 
1315	 28155.9815649955 
1316	 28189.1219332159 
1317	 28223.145889109 
1318	 28260.0472456577 
1319	 28298.2460499455 
1320	 28345.1693509612 
1321	 28393.5916928016 
1322	 28448.4201684294 
1323	 28508.7976255596 
1324	 28573.4104217677 
1325	 28642.5595902245 
1326	 28714.3791861238 
1327	 28794.1236227493 
1328	 28878.4499514974 
1329	 28967.1772331669 
1330	 29063.7452367432 
1331	 29164.1979741182 
1332	 29267.5550728448 
1333	 29377.6980036142 
1334	 29493.6149548708 
1335	 29613.0169211181 
1336	 29735.0743037281 
1337	 29862.2617813431 
1338	 29991.3462435932 
1339	 30118.126394255 
1340	 30245.6410370013 
1341	 30374.0291346553 
1342	 30499.458862483 
1343	 30622.5810254846 
1344	 30740.2118589886 
1345	 30844.9223361227 
1346	 30944.2645461321 
1347	 31034.3392145507 
1348	 31114.5502448591 
1349	 31187.0489064011 
1350	 31252.891669397 
1351	 31306.5956443834 
1352	 31346.7144148435 
1353	 31387.4235518721 
1354	 31419.4955264116 
1355	 31450.9595878821 
1356	 31488.0559291918 
1357	 31524.187977467 
1358	 31567.7401706285 
1359	 31624.860116012 
1360	 31690.5126613341 
1361	 31777.471878598 
1362	 31887.5108165791 
1363	 32015.1887335446 
1364	 32168.1303405496 
1365	 32335.1380447039 
1366	 32517.3299256648 
1367	 32708.8775151476 
1368	 32905.1439769918 
1369	 33099.6742925994 
1370	 33288.2411851381 
1371	 33455.5807398128 
1372	 33594.3744291508 
1373	 33708.0933615233 
1374	 33777.5160612362 
1375	 33813.0647017954 
1376	 33813.1367307048 
1377	 33783.3069932011 
1378	 33730.0449901068 
1379	 33663.6280925217 
1380	 33591.3773009751 
1381	 33518.0248172213 
1382	 33454.3166883374 
1383	 33396.0290020643 
1384	 33354.9141674945 
1385	 33328.1637071847 
1386	 33314.9416927403 
1387	 33316.5740805494 
1388	 33326.0839307126 
1389	 33344.7839548119 
1390	 33376.1041104776 
1391	 33416.6739671162 
1392	 33474.3044431155 
1393	 33544.9394208492 
1394	 33629.6797429566 
1395	 33731.2459026181 
1396	 33842.2443515191 
1397	 33957.9053091683 
1398	 34080.1388147412 
1399	 34205.4832458182 
1400	 34329.7984622882 
1401	 34458.4899189854 
1402	 34582.5446584062 
1403	 34694.6123003129 
1404	 34799.6555255472 
1405	 34885.3799636133 
1406	 34963.1464875723 
1407	 35037.7883987359 
1408	 35099.1848013388 
1409	 35161.3839882741 
1410	 35224.6348159136 
1411	 35276.1025612784 
1412	 35324.0766026081 
1413	 35365.441507861 
1414	 35399.777398639 
1415	 35438.7566247529 
1416	 35469.3492024097 
1417	 35493.7096295572 
1418	 35514.8901594643 
1419	 35521.0534979512 
1420	 35526.1099382823 
1421	 35531.7044736401 
1422	 35526.9481854881 
1423	 35521.2308087969 
1424	 35512.815291698 
1425	 35494.3791895214 
1426	 35469.6614721406 
1427	 35437.3347881493 
1428	 35398.2050222153 
1429	 35355.6012151331 
1430	 35313.3398943815 
1431	 35271.1717320824 
1432	 35224.6499382537 
1433	 35177.4344062074 
1434	 35130.1485372066 
1435	 35081.4462544688 
1436	 35034.6682039847 
1437	 34989.1469599972 
1438	 34943.5559568491 
1439	 34900.5264570508 
1440	 34859.7296500748 
1441	 34819.1293785199 
1442	 34777.7888435244 
1443	 34735.3475162084 
1444	 34695.1220177246 
1445	 34658.0890592313 
1446	 34625.3386822757 
1447	 34589.888576125 
1448	 34557.4881386011 
1449	 34520.3290538032 
1450	 34479.1348597931 
1451	 34439.8612528012 
1452	 34399.657833877 
1453	 34360.740192848 
1454	 34322.0445001917 
1455	 34279.3604019219 
1456	 34235.9343036948 
1457	 34185.808219826 
1458	 34131.7090756443 
1459	 34076.8774587727 
1460	 34015.6728400523 
1461	 33956.0470368176 
1462	 33892.7745437859 
1463	 33828.3854961834 
1464	 33765.6389250943 
1465	 33699.9740957978 
1466	 33636.9902165379 
1467	 33571.381857087 
1468	 33505.8018466246 
1469	 33443.114083348 
1470	 33382.1442923954 
1471	 33326.1434575723 
1472	 33273.2063079505 
1473	 33221.5048463986 
1474	 33172.572052284 
1475	 33124.9295723446 
1476	 33077.3776559236 
1477	 33031.6553372097 
1478	 32986.1207250222 
1479	 32942.151266023 
1480	 32897.0104106083 
1481	 32851.1750882409 
1482	 32810.4000118918 
1483	 32767.1207831445 
1484	 32723.6775468468 
1485	 32683.9642996381 
1486	 32641.4225445525 
1487	 32599.1601564294 
1488	 32559.5243180426 
1489	 32519.4582731125 
1490	 32480.5408576334 
1491	 32440.2949213518 
1492	 32397.3286038122 
1493	 32356.5649948332 
1494	 32315.7840889032 
1495	 32273.6348277139 
1496	 32231.5871363413 
1497	 32189.3359447626 
1498	 32144.4363566489 
1499	 32101.772601208 
1500	 32065.6720856913 
1501	 32029.0352848403 
1502	 31990.988690986 
1503	 31951.5966755905 
1504	 31909.2102823291 
1505	 31865.5136298452 
1506	 31823.7557428229 
1507	 31785.1441891048 
1508	 31746.1451725103 
1509	 31707.0505864721 
1510	 31668.7172948096 
1511	 31629.3297666485 
1512	 31587.7936551804 
1513	 31544.5909032714 
1514	 31501.5399544929 
1515	 31459.2621601315 
1516	 31419.9750853725 
1517	 31380.8023296371 
1518	 31338.2576838478 
1519	 31296.5625405345 
1520	 31252.3374937889 
1521	 31204.5344885165 
1522	 31158.8177677774 
1523	 31113.3783379218 
1524	 31067.8898774604 
1525	 31024.0902395764 
1526	 30981.5037315636 
1527	 30938.5557211938 
1528	 30894.0976548807 
1529	 30847.3049377754 
1530	 30800.231984517 
1531	 30753.950828968 
1532	 30705.0317209827 
1533	 30655.8966762959 
1534	 30606.6843459849 
1535	 30555.1076939892 
1536	 30503.875548302 
1537	 30455.7059808447 
1538	 30407.7234197679 
1539	 30357.476540573 
1540	 30308.7540975367 
1541	 30260.5210706135 
1542	 30212.1818668881 
1543	 30165.3148831547 
1544	 30113.8940652202 
1545	 30059.0076470668 
1546	 30006.8486338693 
1547	 29953.2810586446 
1548	 29899.0966847484 
1549	 29845.7361744742 
1550	 29790.554569103 
1551	 29735.3631605867 
1552	 29679.4208448782 
1553	 29622.5380256446 
1554	 29567.2477517123 
1555	 29510.7149492469 
1556	 29450.7232166464 
1557	 29392.7082869102 
1558	 29333.4674775745 
1559	 29269.6857033363 
1560	 29208.7513073038 
1561	 29150.1271866351 
1562	 29090.4378926988 
1563	 29030.7217379521 
1564	 28971.1538132331 
1565	 28910.219058649 
1566	 28847.0915146646 
1567	 28783.9915259528 
1568	 28720.8467880771 
1569	 28656.5401193906 
1570	 28590.4927864278 
1571	 28523.4929345112 
1572	 28454.9488808997 
1573	 28385.57454166 
1574	 28318.7782035048 
1575	 28253.778091199 
1576	 28189.8611897656 
1577	 28122.6335381269 
1578	 28052.5858596563 
1579	 27982.6431661488 
1580	 27910.8178827965 
1581	 27839.2305752049 
1582	 27768.70253364 
1583	 27697.4639877618 
1584	 27625.3102723136 
1585	 27553.7581673891 
1586	 27483.0411804177 
1587	 27411.9212840853 
1588	 27341.2399348372 
1589	 27271.3194739888 
1590	 27201.4265423624 
1591	 27130.2932835247 
1592	 27058.6685716351 
1593	 26986.0345624124 
1594	 26910.7487579566 
1595	 26835.0066286077 
1596	 26756.6564847046 
1597	 26680.1675210999 
1598	 26606.1813517738 
1599	 26532.0545181654 
1600	 26459.1031157519 
1601	 26383.4382309171 
1602	 26308.7006874243 
1603	 26233.5617957926 
1604	 26159.0261914357 
1605	 26084.8543065539 
1606	 26008.5215025512 
1607	 25932.3937574436 
1608	 25852.7820366463 
1609	 25773.2600979557 
1610	 25691.0928098483 
1611	 25602.5161869373 
1612	 25515.6280489789 
1613	 25429.2242889156 
1614	 25343.0255139252 
1615	 25262.0703499992 
1616	 25178.5510787926 
1617	 25092.4884479102 
1618	 25007.9948078963 
1619	 24918.8285674224 
1620	 24830.1461452822 
1621	 24739.2069273075 
1622	 24644.0883237412 
1623	 24551.178886515 
1624	 24455.3015066039 
1625	 24358.3271164875 
1626	 24263.308893174 
1627	 24167.290081834 
1628	 24071.9163095081 
1629	 23978.0170237056 
1630	 23883.8043605869 
1631	 23789.3617579837 
1632	 23695.3962140233 
1633	 23605.5645696653 
1634	 23516.0723158425 
1635	 23429.6864678479 
1636	 23348.5971840587 
1637	 23264.9356922951 
1638	 23183.9590315139 
1639	 23099.8968233586 
1640	 23011.5218032844 
1641	 22925.3860006072 
1642	 22841.8189781904 
1643	 22753.7057696225 
1644	 22664.2305791608 
1645	 22574.014105137 
1646	 22480.0094157278 
1647	 22385.2945121821 
1648	 22291.3695992019 
1649	 22194.2128471698 
1650	 22095.6370810723 
1651	 21993.7456098717 
1652	 21890.3534830283 
1653	 21782.2486250064 
1654	 21671.831375229 
1655	 21554.0341778549 
1656	 21433.550074314 
1657	 21302.6059513329 
1658	 21164.2997920688 
1659	 21016.9800170928 
1660	 20858.0965600331 
1661	 20697.3854035758 
1662	 20530.2644689372 
1663	 20358.7822333061 
1664	 20182.4297511781 
1665	 20002.9444513565 
1666	 19815.6481974991 
1667	 19631.9172982474 
1668	 19441.8012250637 
1669	 19266.7486883197 
1670	 19094.364941354 
1671	 18934.8372832348 
1672	 18786.2713573389 
1673	 18647.3772259744 
1674	 18516.5300179653 
1675	 18397.9631006545 
1676	 18292.1676727823 
1677	 18192.3756058933 
1678	 18102.1968137541 
1679	 18018.9534674681 
1680	 17943.7988634885 
1681	 17874.9388787263 
1682	 17814.9165759344 
1683	 17758.186317528 
1684	 17705.3593259695 
1685	 17656.4903936071 
1686	 17610.1279672617 
1687	 17574.68696721 
1688	 17538.3406727949 
1689	 17507.4732681599 
1690	 17475.8381749721 
1691	 17442.3475815518 
1692	 17410.7602000035 
1693	 17383.749293899 
1694	 17352.2735442025 
1695	 17318.2083483801 
1696	 17285.1938158536 
1697	 17249.0607516445 
1698	 17215.1188826549 
1699	 17183.6759386148 
1700	 17151.6142450485 
1701	 17118.4260293765 
1702	 17087.7665669043 
1703	 17059.111757255 
1704	 17029.9108537647 
1705	 17000.8268113006 
1706	 16974.1948891893 
1707	 16949.8847353845 
1708	 16922.8903599501 
1709	 16898.5790420244 
1710	 16869.3936661607 
1711	 16834.9537137436 
1712	 16802.5235028658 
1713	 16769.4314094829 
1714	 16735.8893180599 
1715	 16702.594510869 
1716	 16667.8357084067 
1717	 16629.7784283033 
1718	 16597.3933512712 
1719	 16567.3495025976 
1720	 16535.5350456628 
1721	 16505.0425759339 
1722	 16477.5414418177 
1723	 16449.1042270442 
1724	 16424.0883301701 
1725	 16404.9510685154 
1726	 16379.5080975082 
1727	 16354.8131755785 
1728	 16330.6269899376 
1729	 16306.7518263871 
1730	 16282.290213312 
1731	 16256.131398317 
1732	 16228.4646115449 
1733	 16203.4023487269 
1734	 16180.6461521381 
1735	 16157.6399823484 
1736	 16135.11764953 
1737	 16114.3619845982 
1738	 16094.1591936091 
1739	 16074.6928293074 
1740	 16057.3161714633 
1741	 16039.3727983913 
1742	 16021.8106211089 
1743	 16003.604010885 
1744	 15984.4002012968 
1745	 15967.4201586603 
1746	 15950.7683020263 
1747	 15935.4875876759 
1748	 15921.7531788229 
1749	 15910.242537835 
1750	 15900.6042230281 
1751	 15889.4915131348 
1752	 15880.525725866 
1753	 15869.2402907498 
1754	 15855.6623903795 
1755	 15845.5621617981 
1756	 9429.52085336236 
1757	 9550.51419621601 
1758	 9660.36924422193 
1759	 9779.53663290772 
1760	 9884.74878621128 
1761	 9997.72127352426 
1762	 10129.4230802994 
1763	 10264.7393922552 
1764	 10392.920679999 
1765	 10519.856353729 
1766	 10639.9767585478 
1767	 10753.608169415 
1768	 10873.3583733052 
1769	 10987.9269522677 
1770	 11108.1929569474 
1771	 11239.5904466287 
1772	 11370.6994965479 
1773	 11499.5569164459 
1774	 11632.2359759404 
1775	 11759.881320342 
1776	 11881.4158120289 
1777	 12009.3449469711 
1778	 12141.7506939099 
1779	 12264.9257081269 
1780	 12398.3726297731 
1781	 12519.0995030096 
1782	 12628.2210409783 
1783	 12762.5864084913 
1784	 12891.0593772565 
1785	 13019.0752649391 
1786	 13152.3982572446 
1787	 13282.8164284751 
1788	 13391.9258527523 
1789	 13514.1637589178 
1790	 13632.5578617349 
1791	 13752.4519782597 
1792	 13889.4973475012 
1793	 14011.4726683677 
1794	 14130.1809764628 
1795	 14240.8544939505 
1796	 14363.7514146623 
1797	 14481.9996941194 
1798	 14599.6828257588 
1799	 14730.7181350913 
1800	 14854.8848709828 
1801	 14974.2725571954 
1802	 15093.6801038909 
1803	 15198.8376504756 
1804	 15301.3844053175 
1805	 15385.3240320571 
1806	 15450.5525853451 
1807	 15511.475409532 
1808	 15565.5883487814 
1809	 15612.5812530116 
1810	 15669.5517860404 
1811	 15711.3051225398 
1812	 15755.3141360527 
1813	 15801.7765303261 
1814	 15838.3831462289 
1815	 15853.6673271076 
1816	 15892.8266745267 
1817	 15941.0280509134 
1818	 15980.1683977203 
1819	 16038.7439896836 
1820	 16109.1462641304 
1821	 16154.5195101775 
1822	 16190.953559288 
1823	 16217.4030898924 
1824	 16228.5050674136 
1825	 16239.7724139697 
1826	 16230.5181919964 
1827	 16239.9567944372 
1828	 16259.163018797 
1829	 16273.3329222821 
1830	 16286.7364078972 
1831	 16305.6624225315 
1832	 16325.5637409306 
1833	 16334.2377324877 
1834	 16358.808379068 
1835	 16388.0556933278 
1836	 16433.0297563092 
1837	 16492.7992286265 
1838	 16551.8859877168 
1839	 16624.3758313579 
1840	 16705.2736316543 
1841	 16771.9383898513 
1842	 16826.1134250215 
1843	 16896.6424796911 
1844	 16970.1686313458 
1845	 17042.1076286024 
1846	 17132.256191453 
1847	 17202.8734478529 
1848	 17262.9952889308 
1849	 17317.4725035241 
1850	 17365.1248698687 
1851	 17416.5767068741 
1852	 17466.8388840643 
1853	 17522.5255035872 
1854	 17566.774661877 
1855	 17609.0668881558 
1856	 17640.5929627274 
1857	 17670.1935359947 
1858	 17680.2844566997 
1859	 17677.5728105992 
1860	 17660.5853838863 
1861	 17623.5459102075 
1862	 17571.1147864173 
1863	 17523.5775208342 
1864	 17458.4130430153 
1865	 17425.4645121889 
1866	 17381.1123287811 
1867	 17384.1682492629 
1868	 17423.4932110127 
1869	 17466.87366803 
1870	 17541.9374909813 
1871	 17649.8812427882 
1872	 17767.9186784292 
1873	 17908.7319052825 
1874	 18050.3456771433 
1875	 18187.3314755421 
1876	 18306.2192454969 
1877	 18419.1479558192 
1878	 18505.1823540957 
1879	 18572.2388283593 
1880	 18620.4173927011 
1881	 18643.6470867067 
1882	 18653.2644884139 
1883	 18657.1436161929 
1884	 18648.0094809104 
1885	 18632.4214605868 
1886	 18613.415890455 
1887	 18587.7066727599 
1888	 18554.8897281733 
1889	 18511.1583056154 
1890	 18472.3750038809 
1891	 18417.8203138533 
1892	 18342.3487553375 
1893	 18262.9906629796 
1894	 18170.7618946928 
1895	 18080.1429278273 
1896	 18003.6965241458 
1897	 17939.4574452996 
1898	 17886.1258075985 
1899	 17842.25683569 
1900	 17809.6517478119 
1901	 17782.7411033925 
1902	 17776.6173127185 
1903	 17786.4402858758 
1904	 17807.5889573239 
1905	 17843.8435544095 
1906	 17859.980834076 
1907	 17865.6664005667 
1908	 17874.6972533768 
1909	 17871.3561012092 
1910	 17875.7003423674 
1911	 17890.3117614263 
1912	 17899.2823165362 
1913	 17904.8076983388 
1914	 17910.5233609855 
1915	 17916.477529748 
1916	 17917.3130856657 
1917	 17933.4990915303 
1918	 17958.9380449574 
1919	 17989.0042492125 
1920	 18033.3112810066 
1921	 18074.3333403958 
1922	 18125.2774863725 
1923	 18162.4713441569 
1924	 18198.0471887062 
1925	 18229.2959710439 
1926	 18250.5472176348 
1927	 18267.2987545652 
1928	 18296.3076772192 
1929	 18316.5337927534 
1930	 18336.7681489936 
1931	 18356.2582054636 
1932	 18374.7916536285 
1933	 18394.0360887807 
1934	 18405.4257037719 
1935	 18414.2926889675 
1936	 18420.3048959734 
1937	 18420.2915817303 
1938	 18417.2198967402 
1939	 18408.3733270577 
1940	 18402.5498279239 
1941	 18396.7224686502 
1942	 18383.7365388233 
1943	 18380.6035248729 
1944	 18387.4122662102 
1945	 18385.8158014472 
1946	 18388.2006245628 
1947	 18380.3833273377 
1948	 18362.1544055292 
1949	 18348.970686168 
1950	 18335.5343271898 
1951	 18316.7946081308 
1952	 18304.7516261594 
1953	 18279.3459322334 
1954	 18248.8422016519 
1955	 18206.2741961971 
1956	 18170.206786562 
1957	 18127.7498182664 
1958	 18091.9894255584 
1959	 18063.3901061048 
1960	 18027.3160966157 
1961	 17993.3860269651 
1962	 17952.3317598498 
1963	 17909.0452733158 
1964	 17856.8350074664 
1965	 17793.9768531065 
1966	 17733.1874159985 
1967	 17666.0884666547 
1968	 17588.0275425002 
1969	 17517.5976787819 
1970	 17446.0104731905 
1971	 17377.8444506608 
1972	 17317.7271695827 
1973	 17246.7143958918 
1974	 17174.0641498827 
1975	 17098.669031713 
1976	 17006.1489555261 
1977	 16928.2585653036 
1978	 16864.3033133894 
1979	 16792.3393334901 
1980	 16712.4925366472 
1981	 16632.4220690968 
1982	 16552.7788229696 
1983	 16463.8551388409 
1984	 16376.0721389451 
1985	 16298.438324772 
1986	 16208.6358678838 
1987	 16101.5634744014 
1988	 16004.99792061 
1989	 15908.8499599447 
1990	 15814.8722597835 
1991	 15728.0267794251 
1992	 15637.9319767355 
1993	 15534.3790322011 
1994	 15436.1578411188 
1995	 15343.2278735397 
1996	 15248.4537744151 
1997	 15156.805127815 
1998	 15079.2547999021 
1999	 14987.0663101267 
2000	 14883.0843227749 
2001	 14784.5160577923 
2002	 14685.1266567634 
2003	 14585.5288170871 
2004	 14480.2340113486 
2005	 14389.9635273311 
2006	 14295.9974648223 
2007	 14195.6115287792 
2008	 14105.3211794955 
2009	 14010.5132313403 
2010	 13914.3892254041 
2011	 13813.1832649644 
2012	 13721.9810443839 
2013	 13631.97650248 
2014	 13545.8498617748 
2015	 13476.9852083736 
2016	 13391.1852573759 
2017	 13294.1194655199 
2018	 13201.2716878675 
2019	 13102.2680388923 
2020	 13003.5441813218 
2021	 12911.4174658427 
2022	 12828.8306589394 
2023	 12749.9018999606 
2024	 12664.9003051945 
2025	 12585.7721238328 
2026	 12514.6112469362 
2027	 12438.1465850705 
2028	 12360.8732576459 
2029	 12285.8116347703 
2030	 12210.9493675655 
2031	 12131.8904597274 
2032	 12056.9886086687 
2033	 11969.0254134205 
2034	 11875.6656654237 
2035	 11795.1071022526 
2036	 11714.0839205565 
2037	 11652.3905477834 
2038	 11606.792834148 
2039	 11562.9864942367 
2040	 11512.3484113083 
2041	 11462.5475825472 
2042	 11406.7685020403 
2043	 11335.4975101176 
2044	 11273.9935051818 
2045	 11217.3491209797 
2046	 11157.3369367521 
2047	 11093.2203873632 
2048	 11041.0925146368 
2049	 10993.2644259022 
2050	 10947.7373484985 
2051	 10909.8251630943 
2052	 10872.5537716137 
2053	 10824.7574439492 
2054	 10769.3225803172 
2055	 10711.8359624266 
2056	 10660.2722105012 
2057	 10614.212069231 
2058	 10573.3024164827 
2059	 10526.5889506884 
2060	 10477.2579245336 
2061	 10429.9045185139 
2062	 10379.7553384409 
2063	 10332.7727921904 
2064	 10287.5563475445 
2065	 10246.688536795 
2066	 10214.4487142039 
2067	 10176.3649571646 
2068	 10131.6089047648 
2069	 10085.5472314315 
2070	 10035.7310374813 
2071	 9976.80659054011 
2072	 9911.63859109077 
2073	 9855.31175635532 
2074	 9794.29752462948 
2075	 9734.37509078899 
2076	 9684.26035889386 
2077	 9649.59126397141 
2078	 9604.11708314224 
2079	 9558.66954760839 
2080	 9515.04058747961 
2081	 9466.22462494237 
2082	 9429.39411599218 
2083	 9400.60118284448 
2084	 9350.57529393976 
2085	 9300.99679168159 
2086	 9246.39007069053 
2087	 9173.39781576703 
2088	 9114.98314192564 
2089	 9062.27518467723 
2090	 9015.73916871362 
2091	 8979.44514458289 
2092	 8936.47027247759 
2093	 8888.11025571887 
2094	 8835.45174794438 
2095	 8777.45725310154 
2096	 8707.85257730432 
2097	 8646.15800872238 
2098	 8585.55506872612 
2099	 8520.67713660968 
2100	 8463.53483092211 
2101	 8419.02243446563 
2102	 8376.66660397677 
2103	 8330.74187604667 
2104	 8281.17292457702 
2105	 8228.04224274503 
2106	 8163.99426434393 
2107	 8111.49250224302 
2108	 8051.38601461627 
2109	 7983.17829217626 
2110	 7918.8314996697 
2111	 7834.97672295081 
2112	 7761.77755169588 
2113	 7701.2786023224 
2114	 7637.54475389101 
2115	 7580.94237391208 
2116	 7519.4344581557 
2117	 7450.00707771789 
2118	 7386.512000516 
2119	 7322.92467115243 
2120	 7267.74067096765 
2121	 7212.9491614072 
2122	 7163.49607474103 
2123	 7108.68444738202 
2124	 7053.05353747758 
2125	 7005.57832849029 
2126	 6959.57420168927 
2127	 6917.20043104556 
2128	 6887.34125045076 
2129	 6852.08723279675 
2130	 6809.0223172563 
2131	 6774.97218765119 
2132	 6730.79880510508 
2133	 6684.02621473637 
2134	 6648.89675982172 
2135	 6613.70601969878 
2136	 6576.24193127836 
2137	 6549.03056639978 
2138	 6531.86104288814 
2139	 6510.12670257102 
2140	 6490.95963920548 
2141	 6475.88806869634 
2142	 6451.43868450668 
2143	 6421.76037252908 
2144	 6396.17707210756 
2145	 6360.62193905009 
2146	 6343.2517802122 
2147	 6334.76221694538 
2148	 6322.56015993299 
2149	 6334.9809585799 
2150	 6347.96251600702 
2151	 6363.3316978189 
2152	 6409.88617057599 
2153	 6457.04403219053 
2154	 6500.2284586651 
2155	 6551.69975280749 
2156	 6585.89033278336 
2157	 6617.4752643921 
2158	 6653.73940577882 
2159	 6686.0986902544 
2160	 6725.68522760851 
2161	 6771.05273291823 
2162	 6816.99683177293 
2163	 6868.90559375834 
2164	 6921.42314792349 
2165	 6960.06495117917 
2166	 6992.97625279937 
2167	 7007.64254794669 
2168	 7012.77754311362 
2169	 7017.1634180489 
2170	 7023.4537878816 
2171	 7034.84646495679 
2172	 7045.17453191721 
2173	 7057.58225837476 
2174	 7073.4165684714 
2175	 7085.68094293589 
2176	 7107.71452413772 
2177	 7139.85268504477 
2178	 7178.7262650851 
2179	 7228.81783818863 
2180	 7274.79069640121 
2181	 7312.19254316498 
2182	 7338.94307844241 
2183	 7359.40945725052 
2184	 7364.7940476078 
2185	 7372.9382179726 
2186	 7378.52626349226 
2187	 7383.57074985975 
2188	 7385.147484863 
2189	 7393.9781774743 
2190	 7391.49624959877 
2191	 7374.87028065949 
2192	 7342.64257235026 
2193	 7303.39094666556 
2194	 7265.23039829274 
2195	 7224.16534002311 
2196	 7197.6430190454 
2197	 7169.77062909668 
2198	 7138.55342693723 
2199	 7120.95658676702 
2200	 7102.78929303058 
2201	 7082.21702732894 
2202	 7076.08594253324 
2203	 7078.10814503606 
2204	 7071.31282932392 
2205	 7072.87139091092 
2206	 7070.16933624439 
2207	 7054.53962926321 
2208	 7048.49848745613 
2209	 7040.21457261068 
2210	 7028.83962200202 
2211	 7016.90949486174 
2212	 7001.0682806226 
2213	 6979.89575843591 
2214	 6960.15066151551 
2215	 6940.12990933585 
2216	 6917.92014408001 
2217	 6900.29381499193 
2218	 6871.08262206819 
2219	 6837.27652991581 
2220	 6790.39515796268 
2221	 6741.34246775365 
2222	 6690.8473536818 
2223	 6649.59196264591 
2224	 6613.84616824322 
2225	 6575.41822575511 
2226	 6537.51010642223 
2227	 6496.27034388929 
2228	 6456.83298338745 
2229	 6414.10944437264 
2230	 6372.04033057803 
2231	 6328.76297678931 
2232	 6280.18608695659 
2233	 6240.72571285192 
2234	 6201.0077343065 
2235	 6160.91293249603 
2236	 6121.26017714261 
2237	 6072.71170125102 
2238	 6030.88221656407 
2239	 5986.93500137253 
2240	 5941.25474356985 
2241	 5907.50661172883 
2242	 5864.98301959131 
2243	 5826.32812139474 
2244	 5791.52941197139 
2245	 5754.56710635996 
2246	 5718.80540842617 
2247	 5682.83344587368 
2248	 5643.9425924152 
2249	 5607.70788618454 
2250	 5569.52969786978 
2251	 5534.23883669769 
2252	 5499.55185918433 
2253	 5469.76969407795 
2254	 5445.28264065035 
2255	 5422.90258155153 
2256	 5405.26117159017 
2257	 5386.75359563595 
2258	 5371.56669493667 
2259	 5352.16763187434 
2260	 5323.66464938493 
2261	 5297.01050733131 
2262	 5266.37179212455 
2263	 5236.09079351651 
2264	 5201.04291848373 
2265	 5168.21961781747 
2266	 5135.30867105925 
2267	 5091.98878213949 
2268	 5054.98066074552 
2269	 5014.66727951191 
2270	 4971.30460601754 
2271	 4937.79542537713 
2272	 4913.20697786198 
2273	 4890.59731134567 
2274	 4862.65428449274 
2275	 4826.78823299577 
2276	 4782.9209857732 
2277	 4743.56762854382 
2278	 4710.39895129206 
2279	 4673.32203324134 
2280	 4642.74528249885 
2281	 4611.87857549922 
2282	 4581.80767130519 
2283	 4562.88584642668 
2284	 4529.67475909785 
2285	 4491.31832047133 
2286	 4455.70050558198 
2287	 4410.60055699778 
2288	 4376.00775993022 
2289	 4353.70023677172 
2290	 4317.95574191813 
2291	 4277.13717305452 
2292	 4241.59403838763 
2293	 4195.02622520695 
2294	 4170.75469212911 
2295	 4166.4141138119 
2296	 4146.40662871222 
2297	 4137.73667449594 
2298	 4106.43171361557 
2299	 4050.90273037379 
2300	 4011.74495396886 
2301	 3966.8498335172 
2302	 3934.39674097927 
2303	 3912.14767895383 
2304	 3892.13287598779 
2305	 3880.18970033458 
2306	 3865.56832658297 
2307	 3855.23302903276 
2308	 3842.68249161419 
2309	 3834.46163699194 
2310	 3808.52279953117 
2311	 3786.75218820939 
2312	 3760.12815974236 
2313	 3727.95021503549 
2314	 3692.42750790116 
2315	 3643.80075117224 
2316	 3605.99158056073 
2317	 3556.29397306035 
2318	 3508.74566782394 
2319	 3477.47642994328 
2320	 3437.89248877964 
2321	 3410.50633059131 
2322	 3389.16113561616 
2323	 3367.37387830849 
2324	 3349.42962596452 
2325	 3324.65686258331 
2326	 3307.36991661647 
2327	 3283.13315098185 
2328	 3247.8846228575 
2329	 3213.40139426548 
2330	 3168.35719607076 
2331	 3128.97363411836 
2332	 3094.1776015474 
2333	 3064.81795066281 
2334	 3034.74924396608 
2335	 2999.16885177511 
2336	 2970.48113106252 
2337	 2933.75050930969 
2338	 2893.79955322446 
2339	 2866.63915994207 
2340	 2838.05142927447 
2341	 2811.39663381508 
2342	 2805.766546629 
2343	 2787.67504490746 
2344	 2761.79440909137 
2345	 2744.58932502176 
2346	 2715.65437963798 
2347	 2697.14410601609 
2348	 2682.79004850963 
2349	 2661.98463423998 
2350	 2642.18305708447 
2351	 2608.01873595978 
2352	 2575.56622170546 
2353	 2544.05631594635 
2354	 2508.25186497891 
2355	 2481.65095307703 
2356	 2453.9627263403 
2357	 2427.30441420229 
2358	 2407.93636996239 
2359	 2390.91872846937 
2360	 2375.96486447312 
2361	 2360.08992525566 
2362	 2336.51839091047 
2363	 2311.17040175402 
2364	 2281.37941891998 
2365	 2254.04536181975 
2366	 2239.80968165843 
2367	 2223.66081017487 
2368	 2201.92872418437 
2369	 2176.98817505677 
2370	 2147.60022851936 
2371	 2125.02827269502 
2372	 2110.49130741704 
2373	 2094.74945990957 
2374	 2082.87799747954 
2375	 2060.41215703323 
2376	 2033.71866255709 
2377	 2012.58653734342 
2378	 1985.45456685643 
2379	 1972.54653321717 
2380	 1960.80820695791 
2381	 1939.12556525921 
2382	 1923.22940660764 
2383	 1901.87075811333 
2384	 1876.8290631095 
2385	 1850.73957849467 
2386	 1821.32482313893 
2387	 1794.37948817295 
2388	 1766.25087567524 
2389	 1749.82899524693 
2390	 1738.33997089066 
2391	 1726.67291548776 
2392	 1715.79286040256 
2393	 1702.70967513155 
2394	 1694.3120267636 
2395	 1676.37185241254 
2396	 1660.90240672927 
2397	 1640.50202179305 
2398	 1612.7455628261 
2399	 1597.49319279856 
2400	 1583.35668810492 
2401	 1570.3675972808 
2402	 1562.76472920719 
2403	 1558.7806287244 
2404	 1551.33996094314 
2405	 1540.93156391184 
2406	 1530.00009603794 
2407	 1510.44513126372 
2408	 1489.03476337226 
2409	 1468.49767688039 
2410	 1450.1874205242 
2411	 1439.66258458282 
2412	 1426.68362457039 
2413	 1412.24980894472 
2414	 1405.51934024295 
2415	 1389.71077850109 
2416	 1365.81675779125 
2417	 1349.28258913364 
2418	 1323.50514290019 
2419	 1302.89539176876 
2420	 1289.18272505203 
2421	 1263.57029487977 
2422	 1247.39581945296 
2423	 1235.57239263287 
2424	 1221.77283984202 
2425	 1220.83630087289 
2426	 1222.74830465757 
2427	 1207.25470175074 
2428	 1191.03823080403 
2429	 1177.05909927939 
2430	 1155.56983755818 
2431	 1137.94576464964 
2432	 1116.77446816309 
2433	 1097.23106949801 
2434	 1076.0694117692 
2435	 1058.47200992454 
2436	 1050.59461231697 
2437	 1040.70390870895 
2438	 1033.1830073072 
2439	 1030.43610026471 
2440	 1027.2926085402 
2441	 1020.94214170107 
2442	 1017.24373338457 
2443	 1010.76838362425 
2444	 1006.44862053669 
2445	 1004.18688337214 
2446	 995.49563137286 
2447	 986.12212302167 
2448	 971.415907764896 
2449	 954.784830103677 
2450	 940.554992081339 
2451	 930.344266678832 
2452	 921.878831735522 
2453	 914.959496913965 
2454	 910.286481347818 
2455	 896.638286671497 
2456	 887.989216245741 
2457	 878.155745469706 
2458	 855.828774693831 
2459	 837.631028486345 
2460	 820.276781296111 
2461	 802.751989271446 
2462	 800.285382228676 
2463	 801.121920210013 
2464	 795.711333762771 
2465	 789.061663764674 
2466	 781.02903560473 
2467	 777.708405417966 
2468	 771.616326468355 
2469	 773.134053908921 
2470	 769.756198656906 
2471	 756.619255591009 
2472	 743.085518885154 
2473	 718.111066597033 
2474	 710.852543250365 
2475	 710.554193273967 
2476	 698.390028155037 
2477	 703.208129190046 
2478	 698.795650710301 
2479	 685.310914561488 
2480	 683.269415463184 
2481	 676.558524352541 
2482	 671.201596894618 
2483	 665.270926894907 
2484	 664.562323423471 
2485	 657.875877047155 
2486	 648.240222116072 
2487	 645.067413348829 
2488	 623.378691372593 
2489	 604.692716115361 
2490	 590.751151072264 
2491	 570.098741990483 
2492	 561.815054531795 
2493	 555.928824328714 
2494	 555.425750503575 
2495	 554.827634760346 
2496	 545.4443949188 
2497	 537.116033303581 
2498	 510.844612837571 
2499	 485.73828900818 
2500	 468.765274455372 
