Wavelength	1mm_BlackPLA00000.asd
350	 1.35987869174064 
351	 1.05959226663065 
352	 1.09858253606133 
353	 1.09004540051269 
354	-8.73203580278155E-02 
355	 0.224802441132879 
356	 2.80709938980529 
357	 0.673155909275445 
358	 0.714825426744199 
359	 2.58903360070415 
360	 0.111711952624655 
361	-3.65453955474339E-02 
362	 0.895582830962438 
363	 0.482588026902078 
364	-0.668348949558403 
365	-0.213275340270834 
366	 1.28336325929134 
367	-0.541416884051349 
368	-1.16294477718977 
369	-0.132152880631839 
370	 1.36787222517887 
371	 1.08214489313187 
372	-0.285923390389916 
373	-1.30752115615977 
374	 0.790169267641375 
375	 1.37182382998403 
376	 0.865680590337473 
377	 1.90922249287702 
378	 1.35793408664082 
379	 0.683809215895158 
380	 0.996661961302053 
381	 0.221630244085845 
382	-0.258418895079268 
383	-1.29612351168865E-02 
384	 0.589532301006199 
385	 1.19444749668797 
386	 1.36041238243358 
387	 0.916917755052837 
388	 1.03431599564076 
389	 0.129096437136114 
390	-1.46102642928701 
391	-0.136113509354309 
392	 0.620160259708107 
393	 0.807576748213703 
394	 1.54077043311707 
395	 0.850959252815383 
396	-0.423353512342127 
397	-1.26700272798943 
398	-1.16998115616531 
399	-0.142768105217707 
400	 1.44930149153142 
401	 2.88894981758467 
402	 2.74114440148813 
403	 1.16693501288081 
404	-0.765618483500371 
405	-0.199101905739863 
406	 0.797059541293517 
407	 0.878794745826452 
408	-0.159878227239634 
409	 0.298202546078378 
410	 1.6404508502097 
411	 1.90005801370211 
412	 1.26685089933246 
413	 0.904063268547138 
414	 1.46372003257437 
415	 1.91928304987066 
416	 1.79685151051632 
417	 1.02204363994443 
418	-8.93624050212663E-02 
419	 0.548962614820332 
420	 1.20162994376356 
421	-1.42263299200355E-03 
422	 1.2118658317907 
423	 0.860346093373749 
424	-1.6660708900686 
425	 0.86778173771285 
426	 0.857702934995381 
427	-1.24098903800074 
428	-0.937283967794552 
429	 0.126382283507295 
430	 0.43103231635473 
431	-0.532324557986575 
432	 0.668280637200843 
433	 0.978539705047675 
434	-0.04690820518818 
435	 0.672362333211538 
436	 0.342869184728682 
437	-0.767556199916945 
438	-1.30564776164255 
439	-1.19465164921875 
440	-0.397219482476266 
441	 0.674003801791559 
442	 0.440724305549059 
443	-1.23077380874043E-02 
444	 1.80247696990253E-02 
445	 0.964369974141182 
446	 2.60463238753608 
447	 2.6647068264688 
448	-0.313133846885896 
449	 1.27886466354982 
450	 2.39376924692914 
451	 0.374751538864721 
452	-0.53217201153483 
453	 0.319324226691037 
454	 2.00038651326849 
455	 2.25569347003052 
456	 1.21697157287725 
457	-1.33782992803241E-02 
458	-0.37616511517179 
459	-0.69132136016228 
460	-0.185007924544173 
461	 1.05544337453566 
462	 1.38547829814828 
463	 0.329544937649421 
464	-1.06996262987928 
465	-0.890808884308855 
466	-0.817234888605548 
467	-0.966424477675129 
468	-1.07533744476007 
469	-0.552202465554206 
470	-0.159508510398788 
471	-0.161151768394276 
472	 3.56593213235466E-02 
473	-0.698925370050839 
474	-1.40216041106456 
475	-0.337895648043662 
476	-0.234097866836633 
477	-0.631289675090586 
478	-0.712787125831714 
479	-0.481780528879138 
480	-0.458418610801824 
481	-0.32210765734059 
482	 1.6856446796481 
483	 1.38545633159717 
484	-2.37391761810914E-02 
485	 0.643127144575109 
486	-0.630865292036043 
487	-1.80310935344246 
488	-0.940247431979752 
489	 0.534986961947332 
490	 1.155740050147 
491	 0.533102842326172 
492	-0.504681013205253 
493	-7.07175895458967E-02 
494	 0.594115268465615 
495	-0.808023454996263 
496	-0.964133893490342 
497	-1.02205779496388 
498	-1.90222660653398 
499	-1.36537804678678 
500	-0.8098870613254 
501	-0.936001350844821 
502	-1.70048570763507 
503	-1.11784008880179 
504	-0.229502116180476 
505	-1.15012860617839 
506	-1.69466150771196 
507	-1.38288986812354 
508	-0.496761725833359 
509	-1.03967216349418 
510	-0.852118279566724 
511	 0.26344369224749 
512	-0.187819966554139 
513	-0.532974307964411 
514	-0.615662276476203 
515	-0.892584951161175 
516	-2.18391482617836 
517	-2.30186373226887 
518	-0.180087965793922 
519	-0.568926327924562 
520	-0.76254525065704 
521	 0.156672187691856 
522	 0.545524972637348 
523	-0.141704512407214 
524	-1.14001450275441 
525	-1.05194409024878 
526	-1.12681499582801 
527	-1.88803752101883 
528	-3.13323958455244 
529	-2.20327449358018 
530	-1.97908910502441 
531	-2.9842384292913 
532	-1.53060032148408 
533	-1.47529984894844 
534	-2.18681357725933 
535	-0.923299826297469 
536	-0.294106598545615 
537	-0.888705281487486 
538	-2.33986416281792 
539	-1.95664513789946 
540	-1.86214789245813 
541	-2.79790502107352 
542	-2.6832244607335 
543	-2.07882174606475 
544	-1.43362361005332 
545	-1.24432796183363 
546	-0.603542619810103 
547	-0.108398968036458 
548	-0.327060425737275 
549	 0.564439366067769 
550	 0.134808153025449 
551	-2.00689711881007 
552	-1.27844405883993 
553	-0.878280832500044 
554	-1.58853476367531 
555	-2.62185889325753 
556	-2.52497612902965 
557	-1.90192804061247 
558	-1.77211634521059 
559	-1.19908159062786 
560	-0.57578375539797 
561	-0.288243910574519 
562	-0.579515731139618 
563	-0.1115954196117 
564	 0.443789203974252 
565	-1.60281010281079 
566	-2.52474244718904 
567	-2.41877318809262 
568	-2.5176630895569 
569	-1.8759151492642 
570	-0.949690266854402 
571	-0.470583738121501 
572	-1.72622465998813 
573	-2.6997243278012 
574	-2.31922996253112 
575	-0.31367527871406 
576	-0.386311943039682 
577	-1.64300530753323 
578	-1.33588008376717 
579	-0.702678147299587 
580	-1.07520019589291 
581	-2.78539330817259 
582	-2.42258959925409 
583	-1.78141051470738 
584	-1.57249013755959 
585	-0.603856627514275 
586	-0.68901113041748 
587	-1.68429467684777 
588	-2.40949294796871 
589	-2.52097551533979 
590	-2.6035076974065 
591	-2.86872218921086 
592	-0.22528506267452 
593	 0.951211168706175 
594	-0.940372582222575 
595	-1.87542224729412 
596	-1.83354162378903 
597	-1.00145242113633 
598	 1.41512580020178E-02 
599	 9.97666023778157E-02 
600	-0.147004379604783 
601	 4.12533948016357E-02 
602	-1.1004083153731 
603	-1.8390159710603 
604	-1.18424606196007 
605	-0.291267295480048 
606	-0.571254385529221 
607	-1.69935155091228 
608	-1.65410015304086 
609	-1.76168918106934 
610	-1.97726520656737 
611	-1.88411775772066 
612	-1.53316067815915 
613	-1.50895571773401 
614	-2.01716318157534 
615	-1.91894626824738 
616	-2.08547234378923 
617	-2.32947471028043 
618	-1.05137744760183 
619	-8.92617610994242E-02 
620	 0.183242345720257 
621	-4.4872021611396E-03 
622	-0.664293560423265 
623	-1.09462711498219 
624	-0.869354921476088 
625	-1.02765265460894 
626	-1.00129343832334 
627	-0.857696657775669 
628	-1.92122001352922 
629	-2.57220143427416 
630	-2.56206689213767 
631	-2.28750698158157 
632	-0.185689687537713 
633	 1.15332434182121 
634	-0.461479289142679 
635	-0.259582574986999 
636	-0.827395400644047 
637	-2.89923103144087 
638	-2.54796662300259 
639	-1.51583181190211 
640	-0.746141396682184 
641	-0.863382720313797 
642	-1.84125434709428 
643	-2.83932580548353 
644	-2.94452425274138 
645	-2.8417006622634 
646	-1.83427842926905 
647	-0.219762058898074 
648	-1.34049880343044 
649	-2.03490304509437 
650	-1.76627380319889 
651	-2.46633537784292 
652	-2.28438109614894 
653	-1.6138708906272 
654	-1.5250404318442 
655	-1.61468994871974 
656	-1.28903845299386 
657	-0.588742727066925 
658	-1.8725982460766 
659	-2.20238393601922 
660	-1.10576458386092 
661	-1.19735666768201 
662	-2.53209651778023 
663	-3.42581724493204 
664	-1.64310165330776 
665	-1.92824251654261 
666	-2.33226229697503 
667	-0.939948454612498 
668	-0.694898287351885 
669	-1.35452271675159 
670	-2.21769877480633 
671	-1.74922831135901 
672	-2.02425361838624 
673	-2.86197406304595 
674	-2.86379363406692 
675	-1.15872101160307 
676	-4.54608575873651E-02 
677	-1.50983635420034 
678	-2.52264454214764 
679	-2.68411370750932 
680	-2.1699415819143 
681	-1.92801076815504 
682	-1.78452064711419 
683	-1.14344035017028 
684	 0.894267460744506 
685	-1.76143183902225E-02 
686	-1.73735107426628 
687	-1.19810837338572 
688	-1.2669097046059 
689	-1.73841094877897 
690	-2.12477002506745 
691	-1.70448531764929 
692	-1.94284309002159 
693	-2.57508701750542 
694	-1.87461601656176 
695	-1.14625982901442 
696	-0.646889116826754 
697	-0.447526211846954 
698	-1.67587303925289 
699	-1.85023980228458 
700	-0.136075825605543 
701	-1.13108170592377 
702	-0.97956839568507 
703	 0.381172583440069 
704	-0.700100876181988 
705	-1.95018729489393 
706	-2.57516446340681 
707	-2.30346502980807 
708	-1.56253343730558 
709	-1.38232187484321 
710	-2.14318541007637 
711	-2.08677228296392 
712	-2.89605109757628 
713	-4.17820229672496 
714	-3.03271565694392 
715	-2.58865697808299 
716	-2.61559474968873 
717	-1.8176332727569 
718	-1.72120726252668 
719	-1.8632616355099 
720	-1.75039195256659 
721	-1.83736809789532 
722	-1.23092341621338 
723	-0.184258207249582 
724	-0.378699206342789 
725	-2.40770721550707 
726	-4.26567077470232 
727	-3.10618677033212 
728	-2.15890907982287 
729	-1.79308641103318 
730	-1.70794625488287 
731	-0.892746895842038 
732	-0.350626642173591 
733	-0.697577743757957 
734	-2.20311739228274 
735	-2.99426953610286 
736	-2.80146283671291 
737	-2.08564719019759 
738	-0.518633054295113 
739	 0.245888601117279 
740	-0.767027849620814 
741	-1.22290169655568 
742	-2.05850632737322 
743	-2.958708181428 
744	-1.67521411442524 
745	-1.02119745932454 
746	-1.20390897833466 
747	-1.38743636049629 
748	-2.06979457775149 
749	-3.03099450619328 
750	-3.74506290211397 
751	-3.00786364646117 
752	-1.42590148099674 
753	-0.18899809276817 
754	-1.49241108947039 
755	-2.04210111902279 
756	-1.8348703821188 
757	-2.10911718342922 
758	-2.23136992446257 
759	-0.742693321160251 
760	 2.1080914555557 
761	 0.104386759687356 
762	-2.42127837635201 
763	-2.99877832979489 
764	-0.989739197425235 
765	-1.69054955135143 
766	-3.21402146376346 
767	-1.53699516318053 
768	-1.77355802473491 
769	-2.90644554256857 
770	-3.3307091686851 
771	-1.7707405987262 
772	-2.17266670252246 
773	-3.82745577076537 
774	-1.05694261329216 
775	-0.119129817143036 
776	-1.12262999432831 
777	-2.18533194960494 
778	-2.92213557293457 
779	-2.97180437740189 
780	-2.33065085983896 
781	-1.66908229287602 
782	-1.08982998846778 
783	-0.753762251840661 
784	-0.854583479948726 
785	-2.03713561989773 
786	-3.27765644935794 
787	-3.19028644468794 
788	-1.05211257144061 
789	-0.675563474831279 
790	-2.80151376573491 
791	-0.882679800304629 
792	-1.27123815309886 
793	-3.2926692157195 
794	-2.10956938651432 
795	-0.616724746372406 
796	-0.419070443367545 
797	-1.94164740144199 
798	-1.60168724788668 
799	-1.27396435109961 
800	-1.63409797401739 
801	-1.09425985240338 
802	-1.22332270894513 
803	-1.56214955980746 
804	-0.914477075441365 
805	-1.08115688342777 
806	-1.30725108968886 
807	-0.984670549679875 
808	-1.36230774540088 
809	-1.46536497989339 
810	-1.12907987983256 
811	-1.05658526942105 
812	-1.29221119194934 
813	-1.64203016295025 
814	-1.80233801212368 
815	-1.53938128762464 
816	-1.44293668571597 
817	-1.85544457540102 
818	-2.4784239769269 
819	-3.01783060828721 
820	-3.07227573752118 
821	-2.22881150691975 
822	-1.9124899986758 
823	-1.60134731081484 
824	-0.695583460003144 
825	-7.13938330009403E-02 
826	-1.13858784142336 
827	-3.02651770552506 
828	-1.25400080038279 
829	-1.27388337668637 
830	-2.40008990322645 
831	-1.76019068592554 
832	-0.870367415293504 
833	-0.521151072670228 
834	-1.05375567255741 
835	-2.01247162770948 
836	-2.83442848320769 
837	-2.78557613834493 
838	-1.04991543085708 
839	-0.131594637141099 
840	-0.39974910509171 
841	-1.3248757582324 
842	-1.09085569163614 
843	-1.38189731804572 
844	-2.49647557504701 
845	-2.4337042959613 
846	-1.11801575139398 
847	 0.287772890821065 
848	 0.155603295858686 
849	-0.84070644483119 
850	-1.34017288152137 
851	-0.993694528239673 
852	-2.3991664005984 
853	-2.93761302056808 
854	-2.13385566378149 
855	-1.11970429653171 
856	-1.84010211632085 
857	-2.32504138694035 
858	-0.934955755873046 
859	-1.40293764176804 
860	-2.25356051327006 
861	-2.50225131192912 
862	-1.89511150641434 
863	-1.63901393405488 
864	-1.86320913550889 
865	-2.17347452467203 
866	-1.47859358402435 
867	-1.11475027309386 
868	-1.75348126471302 
869	-2.5194484389113 
870	-2.14989091626712 
871	-1.35315917371597 
872	-1.7552892688184 
873	-1.26325540436449 
874	-0.308164097096972 
875	 0.172984042252129 
876	-1.17301498443273 
877	-2.43101491252716 
878	-3.04390095775907 
879	-3.5137804526972 
880	-2.64485273964219 
881	-1.85157621970453 
882	-2.2848483958195 
883	-1.34173568995742 
884	-1.59758192940148 
885	-2.97116280403749 
886	-2.12217453114225 
887	-1.40828015195033 
888	-1.54324020724069 
889	-2.46525109385228 
890	-2.63163494646553 
891	-2.30247094380254 
892	-1.76924555420652 
893	-1.06705400922423 
894	-1.88159373885474 
895	-2.3815759399105 
896	-0.187187842516877 
897	-0.567128819000573 
898	-1.69345515585023 
899	-2.16949786242513 
900	-3.07052841642783 
901	-2.60203070699657 
902	-1.3538429429109 
903	-0.980123601700689 
904	-0.791720096313313 
905	-0.957227803777561 
906	-1.52508137620594 
907	-2.08950841878425 
908	-2.55135561206756 
909	-2.67002024467998 
910	-2.2224024840976 
911	-2.25456092182075 
912	-1.61185179226549 
913	 4.00107424799974E-02 
914	-0.058432314862277 
915	-1.24466352359268 
916	-2.27342299381013 
917	-1.57994488438057 
918	-0.908839989257599 
919	-0.812682755905618 
920	-1.30359091706988 
921	-1.49528937608822 
922	-2.14028694858287 
923	-2.8436246449586 
924	-2.44334843780255 
925	-1.87432824677712 
926	-1.88209190456643 
927	-2.40883533180134 
928	-0.958110453569864 
929	-0.25969234998475 
930	-0.746694099837696 
931	-1.10734543359805 
932	-1.163288001809 
933	-0.973466354672588 
934	-0.67708588147294 
935	-0.267901876183261 
936	-0.816739126575347 
937	-1.35223237889634 
938	 0.232880646662882 
939	-1.47027057269737 
940	-2.33736810999292 
941	 6.95301307296546E-02 
942	-1.44741466957592 
943	-2.67928752390014 
944	-2.52693539004722 
945	-1.95066856138828 
946	-2.52313626543684 
947	-2.64825555775457 
948	-1.72040113944623 
949	-3.19014972012233 
950	-2.84425170721359 
951	-1.40266489185148 
952	-1.93271101559193 
953	-1.92917398251636 
954	-1.77246402473896 
955	-1.76223752088755 
956	-1.18720676640939 
957	-1.02487159221448 
958	-1.10230930297692 
959	-0.905040672812257 
960	-1.53522123400714 
961	-1.40016882230512 
962	-0.426670807930709 
963	-1.51737448214777 
964	-0.926351911857504 
965	 0.416588178820907 
966	-8.07114736299669 
967	-8.17207366067473 
968	-7.09485073608755 
969	-5.32334721037282 
970	-0.321607535097049 
971	 0.952882121102752 
972	 2.05011215985173 
973	 2.75580525350281 
974	-0.252169350468711 
975	 0.13398824339265 
976	 3.72491075341384 
977	 3.3406241502161 
978	 0.883057551865293 
979	 0.238284091108277 
980	-1.64072935777379 
981	-4.69312073058824 
982	-6.3920919032181 
983	-3.91074931158221 
984	-3.39952794756537 
985	-4.75597091859133 
986	-5.63938838205037 
987	-7.00270078674074 
988	-7.13820862601108 
989	-6.8922490571824 
990	-6.31055235179159 
991	-2.70208679236769 
992	-1.2710100062968 
993	-1.70367853091615 
994	-2.50408178349487 
995	 0.432838896952 
996	-2.46183949823479 
997	-6.37083091062443 
998	-5.17528645905937 
999	-4.65162150928873 
1000	-2.62817419359069 
1001	 0.878758712195546 
1002	 1.97157730689259 
1003	-0.566624093448673 
1004	-4.9016273088282 
1005	-6.30411071719454 
1006	-5.92756964963782 
1007	-6.49737574004484 
1008	-7.14616445366041 
1009	-4.34551968902467 
1010	-3.73521250771213 
1011	-3.1250655183359 
1012	-1.05825491322789 
1013	-0.60690884027691 
1014	-0.426314452730424 
1015	 1.10004252839477E-02 
1016	-0.855696424037315 
1017	-2.45893583618384 
1018	-2.03591573758283 
1019	-0.869596008167964 
1020	-2.09468062758106 
1021	-3.79815931928843 
1022	-2.87736963666963 
1023	-2.55322998877084 
1024	-3.23769298536482 
1025	-3.40627580571129 
1026	-0.89364944385272 
1027	-1.77576223608525 
1028	-5.73640301187645 
1029	-7.07844551058992 
1030	-6.72970817790236 
1031	-6.21834651997395 
1032	-3.87217172297577 
1033	-1.16037161320371 
1034	-0.871254707888429 
1035	-1.74065514100932 
1036	-2.88515287966232 
1037	-4.60267451022383 
1038	-3.81920496053435 
1039	-2.33419466892155 
1040	-1.7587253763481 
1041	 0.217137350572421 
1042	 0.740395613954169 
1043	-4.08793079392218E-02 
1044	-1.37820331749122 
1045	-3.93869209039996 
1046	-5.64472421462317 
1047	-5.83134074249821 
1048	-6.44546467327956 
1049	-5.38136122025325 
1050	-6.1507500485143 
1051	-7.9784511401209 
1052	-9.18242764558361 
1053	-11.0412865885645 
1054	-9.7007872195335 
1055	-6.93932215451611 
1056	-5.51033910460622 
1057	-5.37366758466055 
1058	-6.19098687576794 
1059	-6.34078427739955 
1060	-8.33722697868181 
1061	-8.96281134037423 
1062	-8.75802475311358 
1063	-6.79649970994553 
1064	-5.94904141682175 
1065	-4.14036968580594 
1066	 0.912141732528353 
1067	 2.30247189328281 
1068	 2.75268306338696 
1069	 3.74554740733906 
1070	-1.37767657751645 
1071	-1.52715407015786 
1072	 0.781539539556717 
1073	-0.31555155972529 
1074	-0.858938405272068 
1075	-1.51646323180484 
1076	-1.86872315039018 
1077	-2.28867469233955 
1078	-2.35467189181788 
1079	-4.96044352912512E-02 
1080	 1.08642606979548E-02 
1081	-4.43746273529307 
1082	-4.48267615941915 
1083	-2.40430078505071 
1084	 8.95587215693495E-02 
1085	 0.909261809982545 
1086	 0.8647548476 
1087	-2.60944643088993 
1088	-5.1788383560554 
1089	-4.86814725901812 
1090	-6.70982796582814 
1091	-7.66146681528962 
1092	-9.66401574700696 
1093	-10.0167518710359 
1094	-8.91983696581858 
1095	-7.76320233709773 
1096	-4.30932202591568 
1097	-4.49367117194272 
1098	-8.5946248314512 
1099	-8.52192588681584 
1100	-6.83081105270117 
1101	-7.27548827749048 
1102	-6.00370771554689 
1103	-5.16112007583245 
1104	-7.02717385385759 
1105	-9.0113578137915 
1106	-7.28810746273357 
1107	-6.01808401711628 
1108	-2.01200885309379 
1109	-1.56147475557706 
1110	-2.83900567765256 
1111	-5.10170178397306 
1112	-7.6128864681288 
1113	-15.3650535900216 
1114	-16.343718405052 
1115	-14.4635381838227 
1116	-12.2510062074901 
1117	-5.2678718692661 
1118	-2.22583383103635 
1119	-0.645149640800867 
1120	 1.68215253843318 
1121	 4.66927073059298 
1122	 4.70061594339951 
1123	 2.96157093077577 
1124	 1.92156453702295 
1125	-0.701837669314223 
1126	-5.18007104973251 
1127	-6.51780475338969 
1128	-5.18710573728206 
1129	-6.37222463067738 
1130	-8.29462448101822 
1131	-9.05649067300028 
1132	-11.4198275909472 
1133	-9.80489434839933 
1134	-3.90083616451022 
1135	-2.04550748544883 
1136	 1.08095380032354 
1137	 1.46309460409198 
1138	-3.10866959433057 
1139	-4.24351517641793 
1140	-3.6588044636758 
1141	-4.63473789187337 
1142	-6.95711785482368 
1143	-6.78355185674962 
1144	-4.91458480400767 
1145	-4.98765157755948 
1146	-3.91107755101859 
1147	-3.2931083329187 
1148	-3.59182101342365 
1149	-6.64314177107184 
1150	-7.98703642091149 
1151	-8.70979030496059 
1152	-8.73767244324675 
1153	-9.01339134996365 
1154	-8.57112429692709 
1155	-5.95310872414744 
1156	-5.40735712992525 
1157	-6.02554528494398 
1158	-6.54019646465483 
1159	-8.00837093552605 
1160	-8.32130713364451 
1161	-8.74125701436508 
1162	-8.06277118536926 
1163	-5.85613274297728 
1164	-4.40606016334017 
1165	-3.11445750080557 
1166	-1.19179575481915 
1167	 2.09826532493073 
1168	 3.74441121792261 
1169	 2.90565857533502 
1170	 2.70734550992664 
1171	 3.24042006135062 
1172	 3.34147959339505 
1173	 1.40609975957768 
1174	 0.993660682065579 
1175	-2.86624779952103 
1176	-15.0542200313216 
1177	-15.942058430986 
1178	-11.518936162414 
1179	-9.24621846453239 
1180	-0.663985557515229 
1181	 3.15458889920444 
1182	 4.04750954005147 
1183	 4.30510597979988 
1184	 3.74086907605956 
1185	 2.09478784234942 
1186	-4.0106656265003 
1187	-6.27772265442107 
1188	-6.57776793737959 
1189	-7.04007202761317 
1190	-6.15375438655871 
1191	-4.2898171562475 
1192	-3.84460040951305 
1193	-2.09731398043011 
1194	 0.42563172754904 
1195	-2.39852090340134 
1196	-3.61766391373987 
1197	-5.84450720567376 
1198	-7.54199074083657 
1199	-9.74303525855723 
1200	-10.261752534735 
1201	-11.2057272467778 
1202	-10.5590174826126 
1203	-6.84862359314407 
1204	-5.67146570850707 
1205	-4.43423489486583 
1206	-3.9804645651094 
1207	-7.04079639578789 
1208	-6.23124546146578 
1209	-2.633289824514 
1210	-1.40452413631727 
1211	 0.553753221434052 
1212	 3.65093158579001 
1213	-2.0985979952492 
1214	-3.10471072855628 
1215	-1.66742337816633 
1216	-4.54816856491756 
1217	 0.037296885172993 
1218	 4.74462280515206 
1219	 4.14932001237804 
1220	 5.91813090193668 
1221	 4.66097623460979 
1222	-0.98533102119764 
1223	-2.80747158627368 
1224	-4.31910271459566 
1225	-4.71497372736164 
1226	-3.6624077607848 
1227	-2.64055769678065 
1228	 0.123241762472261 
1229	 0.766464483872916 
1230	 1.49595920302646 
1231	 1.5707901604751 
1232	-1.10468749624936 
1233	-2.21360721250718 
1234	-2.4625602725251 
1235	-3.34280067906673 
1236	-4.85761219382962 
1237	-4.10075450596599 
1238	-4.10498730901856 
1239	-4.28824320937762 
1240	-3.77134255325459 
1241	-4.92666393910199 
1242	-9.00668575081038 
1243	-11.8569260259898 
1244	-12.0929210351535 
1245	-11.0730940199255 
1246	-7.93979521248635 
1247	-4.61007806075151 
1248	-5.85378484295692 
1249	-8.6074745438608 
1250	-8.3813475964404 
1251	-6.73667583046035 
1252	-6.49233926649364 
1253	-5.69478242234923 
1254	-4.56569755969725 
1255	-4.25367880127712 
1256	-5.19428413608216 
1257	-4.26936918837856 
1258	-4.43130224195205 
1259	-8.37981170244976 
1260	-9.31495799050736 
1261	-8.35686622451224 
1262	-8.48555823349383 
1263	-7.87698657758508 
1264	-7.23441034584832 
1265	-7.23339262841403 
1266	-6.12790779477619 
1267	-3.58170119069001 
1268	-1.39084241321571 
1269	 1.59707220665806 
1270	 2.71085826596962 
1271	-0.238980911486153 
1272	-1.26649076676054 
1273	-2.63932494695377 
1274	-4.53063521446943 
1275	-3.25571251698869 
1276	-3.35426296026516 
1277	-2.33631035610026 
1278	-0.490374065172843 
1279	-0.247577367825373 
1280	-5.33959347583951E-02 
1281	-0.443466808033959 
1282	-2.26562953531485 
1283	-3.30101998300211 
1284	-4.9935382230077 
1285	-5.6085504969073 
1286	-5.98572178224066 
1287	-6.66170347493501 
1288	-7.84663067854475 
1289	-4.9514524000358 
1290	-2.92110694853171 
1291	-3.18642170157588 
1292	-1.60471486920171 
1293	-2.25255401974644 
1294	-2.74586439129343 
1295	 0.880328045028538 
1296	 0.309102030077011 
1297	-0.627692759157384 
1298	 0.34438206292381 
1299	-2.54381410897402 
1300	-4.06679216160792 
1301	-3.14150887051807 
1302	-3.88337905063484 
1303	-4.2958457451388 
1304	-4.60548791546273 
1305	-6.12906114171114 
1306	-5.53369449796824 
1307	-4.4923933689358 
1308	-6.00381618307502 
1309	-6.28750358009498 
1310	-7.474042355858 
1311	-9.29380290159304 
1312	-9.74341899720893 
1313	-7.30647612339231 
1314	-7.04822305308356 
1315	-7.08461167800408 
1316	-8.26746874582716 
1317	-10.9484772759697 
1318	-10.8330026546205 
1319	-10.182965756136 
1320	-9.60836263423891 
1321	-8.4655583228784 
1322	-9.43906954749909 
1323	-7.52333931636981 
1324	-6.03263699721762 
1325	-5.62949073580948 
1326	-1.84512122010934 
1327	-1.39364705236935 
1328	-5.43924336614387 
1329	-3.95331333213782 
1330	-1.72970701064822 
1331	-2.49833645919595 
1332	 0.756025779404113 
1333	-0.933886904819248 
1334	-4.33838456644348 
1335	-2.94413568919972 
1336	-5.10056590390347 
1337	-4.52207841095507 
1338	-1.90690505168001 
1339	-2.86911875660045 
1340	-0.37372542425946 
1341	 2.32578023579298 
1342	 0.467584923920346 
1343	-0.756078058447944 
1344	-1.34948185085386 
1345	-3.47761736294371 
1346	-5.21578539932635 
1347	-5.67078456944024 
1348	-4.90111519598602 
1349	-4.1372525897974 
1350	-1.41500240237267 
1351	-1.49985133064343 
1352	-3.70316457799433 
1353	-5.7899773171276 
1354	-9.89650583506668 
1355	-11.5850478109874 
1356	-11.5452612194983 
1357	-10.3423918416206 
1358	-9.28613577775496 
1359	-9.47972711351089 
1360	-10.4907174686574 
1361	-10.6271552668959 
1362	-11.0008343543497 
1363	-11.3539864228154 
1364	-10.5271676088566 
1365	-8.96839951927375 
1366	-7.1783212597067 
1367	-4.23341244750979 
1368	-2.90012961238832 
1369	-4.40809150404603 
1370	-4.94417532558929 
1371	-5.13500037216765 
1372	-2.14641619259936 
1373	 2.61351115045243 
1374	 3.28888878183395 
1375	 3.31765941590616 
1376	 2.15908715211995 
1377	-2.04451099638654 
1378	-2.35639371536287 
1379	 1.1083385048306 
1380	 0.160126250558563 
1381	-0.279495952485242 
1382	 0.397817458086111 
1383	-2.82604619828859 
1384	-3.10802735363188 
1385	-1.31857127838829 
1386	-1.56895880332076 
1387	-0.610653964953723 
1388	 1.5893549608278 
1389	 0.970345012593684 
1390	-3.29335790495856E-02 
1391	-0.703203302859928 
1392	-2.74385878358546 
1393	-8.87853412659808 
1394	-9.93031267458418 
1395	-8.19542455799686 
1396	-8.54654782985822 
1397	-9.31474867788887 
1398	-7.51696331278565 
1399	-8.13698015750011 
1400	-10.8277509300285 
1401	-10.1975181138792 
1402	-7.24166057740402 
1403	-5.7065928659241 
1404	-3.74505093275765 
1405	-1.88504228893558 
1406	-4.58768975143902 
1407	-7.38072744996581 
1408	-6.79017965914316 
1409	-6.05237091992601 
1410	-6.54086337503898 
1411	-8.43276767825302 
1412	-9.6264273916819 
1413	-8.07364463139589 
1414	-4.09528072217179 
1415	-2.22381932583484 
1416	-1.62532773776546 
1417	-1.81658135133168 
1418	-4.88510319056872 
1419	-4.66170040694342 
1420	-2.96768447180891 
1421	-3.33418545496796 
1422	-2.72069719150552 
1423	-0.1412421339676 
1424	 2.00925354296051 
1425	 0.525134158746943 
1426	-1.61939100060768 
1427	-2.97393533469675 
1428	-5.30579367355752 
1429	-5.02192267456243 
1430	-3.84832378573218 
1431	-3.46516747498605 
1432	-2.51112245705004 
1433	-4.6629786156732 
1434	-9.08489619584106 
1435	-12.1176517988272 
1436	-12.8518439360995 
1437	-11.3718548837948 
1438	-7.38970558165865 
1439	-3.56751330271306 
1440	-1.84112565259237 
1441	-0.559938575774646 
1442	-0.770933842295721 
1443	-2.79654114434941 
1444	-3.80626276753807 
1445	-3.73901376175015 
1446	-2.9421869053502 
1447	-2.46768470012825 
1448	-0.567024948091618 
1449	-0.920930350830268 
1450	-3.10646856323295 
1451	-3.21699706749212 
1452	-3.18459922058102 
1453	-2.32345045176888 
1454	-1.20855259768833 
1455	-1.39632986642325 
1456	-2.34060226157668 
1457	-3.45551928147373 
1458	-3.23154785094739 
1459	-0.75674556704732 
1460	 2.34321619063078 
1461	 3.34841987424264 
1462	 3.16716438468533 
1463	 0.423955659875961 
1464	-3.54110304403486 
1465	-3.19360216898674 
1466	-1.65159222594671 
1467	-0.389228523853718 
1468	 2.4546197417969 
1469	 2.59671115971443 
1470	 1.68997305780521 
1471	-0.125752394005825 
1472	-5.78445862652997 
1473	-9.23229816307817 
1474	-7.97519488016424 
1475	-6.63144789397078 
1476	-3.82889414537051 
1477	-5.98866049982277E-02 
1478	-0.18621869205028 
1479	-1.02826475143101 
1480	-3.06067189921361 
1481	-5.05696185329695 
1482	-5.30305042688459 
1483	-6.05191216205107 
1484	-4.10516267034253 
1485	-2.73450539192655 
1486	-2.24540611878285 
1487	-1.18046305568701 
1488	-0.921241557024535 
1489	 0.399150554565771 
1490	 0.777848106604345 
1491	 1.13779570154819 
1492	 3.36194747060737 
1493	 5.30161862633928 
1494	 5.17356869561643 
1495	 3.81830351410135 
1496	 1.15012646715086 
1497	-3.16145809252361 
1498	-5.64984140327851 
1499	-5.28478813656541 
1500	-4.27509220986926 
1501	-3.41125635509245 
1502	-2.1018583472638 
1503	-1.82053892992439 
1504	-1.41837018609047 
1505	 0.354289093885726 
1506	 0.998769404662585 
1507	 2.25580105666488 
1508	 3.95120316726647 
1509	 3.24538404286476 
1510	 2.30577967908358 
1511	 1.63617269001308 
1512	 8.82769616119936E-02 
1513	-0.92921120753089 
1514	-2.81829784749967 
1515	-3.28619568345008 
1516	-1.09184378851296 
1517	 0.256116435928747 
1518	 0.657451965143164 
1519	 0.55464956728156 
1520	-0.897979897675713 
1521	-2.18785173686846 
1522	 0.656544572346612 
1523	 1.59253672113322 
1524	 0.256702968855796 
1525	 6.29369922406632E-02 
1526	-2.3447363381796 
1527	-1.12125036424863 
1528	 1.80289686930566 
1529	 3.38439259759067 
1530	 5.29136222271736 
1531	 3.55828906966328 
1532	 0.619421607710619 
1533	-2.70685576823659 
1534	-6.50741255269377 
1535	-8.08911854947407 
1536	-9.12451142890222 
1537	-9.72777683100578 
1538	-7.59995459426098 
1539	-3.8371895467382 
1540	-0.659616954182052 
1541	 2.40937985188173 
1542	 3.32817648041028 
1543	 2.49596696819656 
1544	 2.96036267874103 
1545	 2.26319641837457 
1546	 2.52593218256208 
1547	 1.39680944246321 
1548	-1.99289385353749 
1549	-1.69132654684693 
1550	-2.1883621994551 
1551	-1.49753912848674 
1552	 0.984610046950101 
1553	 1.94729968345764 
1554	 2.25186661111855 
1555	 1.27592074591703 
1556	 1.66207042235361 
1557	 1.3160902807263 
1558	 2.10324649732384 
1559	 5.06565776646604 
1560	 6.12269622784887 
1561	 5.70593006306428 
1562	 2.95319728942735 
1563	 0.695376074250773 
1564	-1.09365878815094 
1565	-4.93563527047073 
1566	-5.2620331534664 
1567	-4.0194723706947 
1568	-3.56354203535305 
1569	-0.295056979457773 
1570	 0.988409742985059 
1571	-2.89955607809061 
1572	-7.47587177617992 
1573	-8.20535784813339 
1574	-10.0568422535781 
1575	-8.78806662329337 
1576	-3.40856032338607 
1577	-4.20634654865419 
1578	-1.69833787623222 
1579	 2.51678425589903 
1580	 1.58870027388919 
1581	 2.70758333962434 
1582	 1.87507782057761 
1583	-1.75343073460065 
1584	-1.31489920951997 
1585	 0.591760860560498 
1586	 2.38756899527853 
1587	 3.79739532887959 
1588	 3.77461314068719 
1589	 3.6150786092048 
1590	 2.23965057926523 
1591	 1.13242469554842 
1592	 0.215677156642687 
1593	-2.46938123588559 
1594	-4.52351416738375 
1595	-5.33139904917909 
1596	-5.17433937010331 
1597	-4.90767493256409 
1598	-4.97935394424169 
1599	-1.93510120303442 
1600	-0.64767619687979 
1601	-0.536256859675174 
1602	 2.71859856902117 
1603	 0.915199935531131 
1604	-1.31595212434758 
1605	 0.503019173776749 
1606	-0.623647597943639 
1607	-0.312880804640705 
1608	 1.7882314138924 
1609	 0.487491724325938 
1610	-1.8695525841201 
1611	-2.10559186352557 
1612	 0.699959528320146 
1613	 3.05806822438588 
1614	 5.50323475426487 
1615	 7.19726611092528 
1616	 4.13097800438597 
1617	 1.37304805724029 
1618	 1.01853214314724 
1619	 1.74618997700325 
1620	 4.41944322355841 
1621	 5.30187879862204 
1622	 2.2419709406338 
1623	 0.300765154787804 
1624	-0.567161575923415 
1625	-1.13712815718655 
1626	 1.37246721895136 
1627	 3.5482329841349 
1628	 5.47385830286991 
1629	 6.42100248045939 
1630	 6.2794892787287 
1631	 6.64198567710249 
1632	 5.13910374288548 
1633	 2.80233474293619 
1634	-1.96890050904505 
1635	-4.12394142396233 
1636	-6.53967502260992 
1637	-7.64159316197263 
1638	-5.74856055762521 
1639	-4.52456877825243 
1640	-3.5347189262779 
1641	-2.79323940926562 
1642	-1.03251895101386 
1643	 0.187115403118583 
1644	 2.05736059607156 
1645	 1.39644948468796 
1646	-2.34393426326829 
1647	-3.3982987831264 
1648	-6.05209462102098 
1649	-6.02318693503701 
1650	-1.41122661529296 
1651	 0.24346345598152 
1652	 1.91422864847843 
1653	 2.20757943337138 
1654	 0.58558956253032 
1655	-0.247340657045343 
1656	-2.53132991350282 
1657	-2.34784977032808 
1658	 0.428805096135658 
1659	 0.219705175540385 
1660	-0.951828619902591 
1661	-0.674889293545486 
1662	-1.37615932213057 
1663	-1.37832293684413 
1664	 0.889809489157942 
1665	 1.68554856633843 
1666	 0.238447051057911 
1667	 0.451628194626805 
1668	 2.7395414101222 
1669	 2.51966728961162 
1670	 1.10935806996371 
1671	 1.15368039799908 
1672	 0.53694266152664 
1673	 0.122559316871353 
1674	 1.04067474775652 
1675	 0.301313138023862 
1676	-1.87753230459241 
1677	-2.42872255815943 
1678	-2.73445191232336 
1679	-2.6619302984345 
1680	-1.24236331559263 
1681	-2.66929443991115 
1682	-5.54827222700738 
1683	-6.72813466081256 
1684	-8.41822440897688 
1685	-6.09473245595738 
1686	-4.15997829153068 
1687	-7.12070651147472 
1688	-7.63561983335326 
1689	-8.95144859350315 
1690	-9.38849018272284 
1691	-6.49774656853676 
1692	-5.2859692485167 
1693	-6.67290687214258 
1694	-5.39684646333209 
1695	-1.94257612990401 
1696	 6.46456065333497E-02 
1697	 3.68406005880923 
1698	 5.41237718429892 
1699	 4.59465706780619 
1700	 4.46428519379532 
1701	 3.97388199338442 
1702	 3.71794778244328 
1703	 3.61067122573203 
1704	 3.14610216130399 
1705	 3.31196272373908 
1706	 1.92199043646747 
1707	-1.77644542424828 
1708	-2.79209827039067 
1709	-2.57673924555066 
1710	-3.99519293679582 
1711	-5.83262421711462 
1712	-5.12942245031433 
1713	-3.9333817167306 
1714	-3.98214020140143 
1715	-0.456111395080561 
1716	-2.13886949574113 
1717	-10.3645512320181 
1718	-11.6325493662113 
1719	-11.7854453892258 
1720	-10.3721720828983 
1721	-4.56418007802453 
1722	-2.01607888779947 
1723	 0.104342823884527 
1724	 0.994704169812478 
1725	 0.745849845060639 
1726	 1.59210070437614 
1727	 0.634407296715859 
1728	 2.55889536647403 
1729	 4.18363583063132 
1730	 3.42042607551399 
1731	 3.86722327104214 
1732	 2.15338506881904 
1733	 0.694555802912835 
1734	-0.755719038492771 
1735	-1.64234556905423 
1736	-2.79993446160674 
1737	-3.1986906309254 
1738	-2.66385164395386 
1739	-2.50454782564182 
1740	-2.63060047497821 
1741	-1.29860464267563 
1742	 1.83562452985728 
1743	 2.79638945196683 
1744	 3.12157233355352 
1745	 4.29628297652801 
1746	 5.04548809544925 
1747	 4.78124992495325 
1748	 5.95435710403673 
1749	 4.07795719196701 
1750	-2.51730350834437 
1751	-3.73425094523862 
1752	-3.38067569366074 
1753	-3.16119888037754 
1754	 0.233863293470491 
1755	-0.622248491812667 
1756	-1.30554876959864 
1757	-1.21964920913633 
1758	 4.06975495988189 
1759	 5.35236235334882 
1760	 5.69281834810396 
1761	-3.52224637344554 
1762	 4.17349065657668 
1763	 6.42045136988529 
1764	 8.17495705280208 
1765	 12.0181878296863 
1766	 15.3665325380098 
1767	 17.2018558161167 
1768	 18.5232511523255 
1769	 21.0184901538104 
1770	 25.2131031386951 
1771	 20.5934922248941 
1772	 6.16560375627893 
1773	 4.02106448480634 
1774	 6.92781908592756 
1775	 5.03693286064957 
1776	 8.10430839659876 
1777	 9.60040737166455 
1778	 3.3968827097314 
1779	 2.4991266408179 
1780	 20.1634769800511 
1781	 14.8855044025894 
1782	 6.39311300670072 
1783	 7.61820220802818 
1784	 4.81080611332334 
1785	-10.6560885350747 
1786	-2.51074599362158 
1787	 10.0491568785858 
1788	 7.18790529959021 
1789	 3.34722508973954 
1790	-8.08844983852057 
1791	-8.44942836938021 
1792	-3.45130355045714 
1793	-2.74747558770139 
1794	 3.89186062955385 
1795	 21.9987158584507 
1796	 30.3275835889371 
1797	 29.8782983143478 
1798	 35.6697394692442 
1799	 31.1666894237263 
1800	 18.2913208113603 
1801	 9.96973452589712 
1802	 7.67546394432999 
1803	 9.77356366590588 
1804	 23.307214057645 
1805	 28.994209642786 
1806	 37.6297397204017 
1807	 39.8376661056136 
1808	 36.4323559710478 
1809	 37.4246192637045 
1810	 38.646269417185 
1811	 26.7120325780851 
1812	 16.9009178528883 
1813	-3.32617150580794 
1814	-11.777015154795 
1815	-20.4780020092517 
1816	-18.9435732801612 
1817	-5.90306206112404 
1818	 6.80847646314705 
1819	 24.3823757618499 
1820	 36.5168284829865 
1821	 42.2027073086759 
1822	 44.6884951593448 
1823	 42.3072374384285 
1824	 26.3784858607507 
1825	 20.8417622375504 
1826	 14.2968289359144 
1827	 10.7507676979943 
1828	 7.44396928505341 
1829	 20.2371701417909 
1830	 15.5391979884415 
1831	 1.38046403509428 
1832	 0.372088603492235 
1833	-3.0362072721306 
1834	-0.323679356936548 
1835	 25.5560000835885 
1836	 28.2216403495444 
1837	 16.7036273457805 
1838	 9.0124612054354 
1839	-2.86873062110797 
1840	-26.71764603373 
1841	-37.4506604112096 
1842	-44.0225598136506 
1843	-44.2972206015307 
1844	-39.7845549484959 
1845	-29.7418560086076 
1846	-5.66643359296657 
1847	 6.53133962878091 
1848	 25.3424314931053 
1849	 28.3152468155392 
1850	 9.64531208331042 
1851	 12.9905797766229 
1852	 12.1519520778032 
1853	 5.0020839022137 
1854	 7.57789102274675 
1855	 22.9303583291927 
1856	 24.8231648185733 
1857	 25.8186819725851 
1858	 22.9883971405274 
1859	 8.44731689451516 
1860	 5.11755119605848 
1861	-1.26865397079004 
1862	-3.00574360448308 
1863	-4.10358717417449 
1864	-4.25849536317039 
1865	-3.34066619800999 
1866	 1.29748230504356 
1867	 2.77287819147333 
1868	 3.95560385759672 
1869	 11.1217371035292 
1870	 6.63376821354357 
1871	 1.17922672109569 
1872	-3.10241117055233 
1873	-9.27041895297244 
1874	-14.0331757026753 
1875	-12.105074553127 
1876	-9.58248248638908 
1877	-4.37472394044921 
1878	-4.05699518680435 
1879	 11.6602749702597 
1880	 14.6777336334677 
1881	 11.224361841396 
1882	 19.4312239735041 
1883	 7.89482673232514 
1884	-0.42692530013659 
1885	-1.03186038490719 
1886	-5.56657808862878 
1887	-8.80329290084795 
1888	-7.42865237505243 
1889	-13.9707247670251 
1890	-20.5309515252811 
1891	-17.5603022390337 
1892	-12.4656627211575 
1893	-5.99952658504143 
1894	 1.37853249474768 
1895	 9.85469608571531 
1896	 6.74292798635352 
1897	 10.4948535594565 
1898	 26.9876301218333 
1899	 32.2186512166156 
1900	 29.1445285871306 
1901	 34.807345920727 
1902	 29.830546402191 
1903	 23.3152590559601 
1904	 28.0360560130973 
1905	 18.9973776416036 
1906	 17.4532286437091 
1907	 18.1190826509765 
1908	 13.1962228964023 
1909	 4.58956094496251 
1910	-0.601307162374047 
1911	-14.2487931772667 
1912	-16.3866740188312 
1913	-8.97094504056566 
1914	-6.44503396089755 
1915	-6.09178195331135 
1916	-9.26431153588269 
1917	-13.9668406523017 
1918	-28.9760385356989 
1919	-32.6294523497132 
1920	-27.5956830046257 
1921	-22.5404928906772 
1922	-13.1977000026823 
1923	-5.35416215710261 
1924	 9.45519045454851 
1925	 14.3525397168465 
1926	 13.580414941227 
1927	 9.13665795507952 
1928	 10.0925865693419 
1929	 0.675626902388682 
1930	-1.77504428863756 
1931	 5.97911956246588 
1932	-0.169452422052972 
1933	-18.7878534615947 
1934	-23.9905472350633 
1935	-31.1010223845798 
1936	-34.7750370183871 
1937	-28.4372463916421 
1938	-23.8772370982212 
1939	-20.4401770655382 
1940	-14.945974396266 
1941	-11.3335992542816 
1942	-2.34065411451577 
1943	-1.63036146722786 
1944	-7.75882142206473 
1945	-11.6229497513622 
1946	-21.888886072262 
1947	-23.8980820901562 
1948	-23.6067425310544 
1949	-19.8517714882605 
1950	-8.23996971232923 
1951	 1.00305578621414 
1952	 16.1030241197699 
1953	 22.8994434938855 
1954	 28.3995601190254 
1955	 33.7856538271539 
1956	 32.0636481698977 
1957	 22.5501357924159 
1958	 16.0334782179534 
1959	 5.2870267847507 
1960	-3.04101519696703 
1961	-15.1066658956164 
1962	-18.6745988654692 
1963	-19.4082575407107 
1964	-16.7601245715409 
1965	-1.16756438482899 
1966	 7.40861294987901 
1967	 13.9927771138188 
1968	 23.0823751284063 
1969	 21.9885009592775 
1970	 13.9334308807047 
1971	 4.84204285397581 
1972	-16.7849777349619 
1973	-26.792041108182 
1974	-40.557343254956 
1975	-40.8810805444161 
1976	-25.3841508125962 
1977	-14.8231814486888 
1978	 4.58966329466524 
1979	 21.3444762407716 
1980	 27.8317096207435 
1981	 25.2239411611455 
1982	 28.6434793829101 
1983	 26.8849891169359 
1984	 30.8005842990571 
1985	 45.7206206874076 
1986	 45.455678026954 
1987	 33.5258615512429 
1988	 29.2571088065621 
1989	 19.0002490276239 
1990	 14.4827566963287 
1991	 14.3325275922856 
1992	 25.1401430984693 
1993	 23.397776774025 
1994	 17.502293921886 
1995	 13.2029205905757 
1996	 3.7185579302296 
1997	-1.570092978353 
1998	-4.05769419802546 
1999	-7.55313910207443 
2000	-14.481154786585 
2001	-9.62477148695485 
2002	 2.56679949025139 
2003	 10.1372610008198 
2004	 33.3501903155282 
2005	 32.3496346614077 
2006	 24.5321766972937 
2007	 34.8860100149344 
2008	 33.6879825210123 
2009	 38.565221579369 
2010	 41.4942492150383 
2011	 46.1293648286344 
2012	 40.7416619400235 
2013	 29.1400888959882 
2014	 24.7544208835206 
2015	 12.1649591401231 
2016	 11.7256448793458 
2017	 29.8230721397905 
2018	 31.7586963583829 
2019	 32.6983341535425 
2020	 26.5930830552134 
2021	 8.03727442647947 
2022	-0.406065448153724 
2023	-3.76381015017923 
2024	-6.12413631960499 
2025	-6.03107632515672 
2026	-0.169063121391907 
2027	 1.56581209970606 
2028	 5.11146814738634 
2029	 4.35935562463105 
2030	-3.10479519115144 
2031	-1.92056681308714 
2032	 1.72584725686887 
2033	 2.58986129257897 
2034	 11.8793026761157 
2035	 26.1120447905129 
2036	 21.4436592563493 
2037	 17.3287561163542 
2038	 10.0749181219849 
2039	-9.83849240835724 
2040	-13.2398469348013 
2041	-10.2359865302129 
2042	-8.89247279426123 
2043	 1.2917958416594 
2044	 4.96724383667498 
2045	 2.10041863155304 
2046	 2.33821201163489 
2047	 6.36221434184054 
2048	 7.12555765179743 
2049	 2.74259853595067 
2050	 6.17795341579428 
2051	 15.4708050797342 
2052	 13.3015582448638 
2053	 14.6762776359564 
2054	 20.9607580164184 
2055	 21.9879038359807 
2056	 24.6430753513026 
2057	 29.2610634148026 
2058	 24.7786948856558 
2059	 28.6448383027123 
2060	 34.147037821791 
2061	 39.454957344947 
2062	 52.4947131789595 
2063	 61.4270644051754 
2064	 69.5122452653706 
2065	 72.193700956704 
2066	 66.3569656602074 
2067	 63.1170207093187 
2068	 53.050542066867 
2069	 34.1860941218603 
2070	 18.487569523533 
2071	 8.20731559891032 
2072	-0.727306257254475 
2073	-12.1297241633972 
2074	-9.15205529800136 
2075	-10.5064079234291 
2076	-9.86336911854109 
2077	-6.05704123531731 
2078	 0.848770725760104 
2079	 10.9874366020492 
2080	 18.6271959694902 
2081	 29.6751813783017 
2082	 33.2877879595101 
2083	 34.4414312760827 
2084	 36.6414193421115 
2085	 29.6272763157393 
2086	 25.5364299822917 
2087	 15.7901943222504 
2088	 10.4862769956957 
2089	 10.4891232014764 
2090	 7.85745877427092 
2091	 19.1895266838646 
2092	 22.3396668176017 
2093	 24.1259604478933 
2094	 29.1562988716348 
2095	 29.1756295976112 
2096	 23.7878290672819 
2097	 19.2990093081282 
2098	 12.2556974746745 
2099	 5.29345637482236 
2100	 5.34338680361494 
2101	 12.9742727931784 
2102	 21.0279894490246 
2103	 29.61959173657 
2104	 25.3522613480841 
2105	 11.5686770035223 
2106	 3.3915536938007 
2107	-0.291441778163237 
2108	 10.3318901918132 
2109	 17.6274243926704 
2110	 15.5871133552682 
2111	 13.7324643288385 
2112	-2.2041235194861 
2113	-10.0605697964858 
2114	-9.68386967030542 
2115	-1.37226435296323 
2116	 5.78764365272403 
2117	 26.2480544158416 
2118	 31.1805367384496 
2119	 30.958259246969 
2120	 21.0243838975382 
2121	 14.3549365790027 
2122	 10.6361446407542 
2123	 14.7409404450709 
2124	 29.3459484334136 
2125	 38.506751207295 
2126	 49.8167991623636 
2127	 52.3826359360167 
2128	 43.798789335828 
2129	 39.3277819998804 
2130	 27.973448653349 
2131	 17.7476968049777 
2132	 20.5474060688559 
2133	 26.6757395599852 
2134	 29.9277876116806 
2135	 33.342720576487 
2136	 42.77245301295 
2137	 41.6470462292587 
2138	 36.0068737243935 
2139	 27.7329134522026 
2140	 13.4346966662924 
2141	-5.09269418019182 
2142	-15.7373710167038 
2143	-21.5470430900079 
2144	-15.6229002923105 
2145	-6.02972852441822 
2146	-5.96678070643392 
2147	-4.85275491892201 
2148	-5.55569957447028 
2149	 1.1386129902682 
2150	 16.8034008551458 
2151	 27.3447287560426 
2152	 26.1657781749014 
2153	 10.8726334745646 
2154	-2.81116766992248 
2155	-10.4083428891328 
2156	-6.23442413247349 
2157	 11.1975443407622 
2158	 21.4052271630317 
2159	 35.6450449525933 
2160	 40.2175715414597 
2161	 35.3171938083482 
2162	 32.9098366003458 
2163	 27.6909144736885 
2164	 24.117772693243 
2165	 17.5366945842273 
2166	 14.5054835920439 
2167	 17.2324048368211 
2168	 17.0421524236868 
2169	 27.9932437955254 
2170	 47.7667536042287 
2171	 54.4757693078129 
2172	 62.11819919709 
2173	 57.6496090299033 
2174	 38.3136112047901 
2175	 29.3933954879149 
2176	 12.7702818100081 
2177	 5.92619797209145 
2178	 7.62543275958993 
2179	 2.30081662396197 
2180	 13.2490738784124 
2181	 15.0196364794975 
2182	 11.4022645388619 
2183	 11.9979162981674 
2184	 7.67682730771738 
2185	 6.06129974565023 
2186	 14.6050806524024 
2187	 13.8282844299986 
2188	 6.12262726489016 
2189	 6.52056706771253 
2190	 8.01673723321223 
2191	 5.80033300386774 
2192	 16.3144535783494 
2193	 19.1558391266185 
2194	 13.2419276433054 
2195	 15.5373273930646 
2196	 12.6736692603982 
2197	 20.5959223797512 
2198	 32.5523678251639 
2199	 35.6786612091722 
2200	 39.7701255824189 
2201	 29.4770262018681 
2202	 15.0132556013988 
2203	 2.64306675433352 
2204	-10.2415380208046 
2205	-9.54523341907433 
2206	-1.39701328226683 
2207	 7.22346210526149 
2208	 12.8053256277982 
2209	 7.74826120228588 
2210	 5.31577882636304 
2211	-8.4193959202802 
2212	-4.20691130790843 
2213	 16.0252425662328 
2214	 26.0740224171734 
2215	 40.9820747790347 
2216	 47.9033827636638 
2217	 42.2746617587096 
2218	 41.9379914733949 
2219	 44.3084119049688 
2220	 42.2666657381975 
2221	 42.4103435427216 
2222	 38.9889616026143 
2223	 33.8259359713312 
2224	 34.0978675205748 
2225	 23.3898102133236 
2226	 18.670795564677 
2227	 13.88950705392 
2228	 2.90766862148631 
2229	 3.23943074517548 
2230	-0.219035124119053 
2231	-2.82105731676569 
2232	 3.38487070951273 
2233	 2.01608807912949 
2234	-2.29145880533101 
2235	-5.67116205369737 
2236	-11.1499725905531 
2237	-6.90845662167082 
2238	 0.11676176372603 
2239	 2.61418579272912 
2240	 1.39809722175092 
2241	-11.275848063801 
2242	-22.9829698198533 
2243	-28.3256382231889 
2244	-35.8863422721598 
2245	-30.8054727394735 
2246	-7.46907846287938 
2247	 1.92519634555031 
2248	 16.4462288412578 
2249	 17.6272706353335 
2250	-0.474932423147872 
2251	-7.25739953877692 
2252	-13.5523914450413 
2253	-17.9930734808334 
2254	-16.5612878834836 
2255	-16.6428230421458 
2256	-17.4969028917128 
2257	-22.7043334159431 
2258	-16.6887330219979 
2259	-12.841057722456 
2260	-9.22695746989515 
2261	-1.90468917211837 
2262	-5.51149879013944 
2263	-11.4135719077758 
2264	-25.6785723650881 
2265	-30.7524113097309 
2266	-21.5339831175444 
2267	-15.4783153589544 
2268	-1.95756593469682 
2269	 13.925550356397 
2270	 15.0571700024805 
2271	 15.3440918738904 
2272	 25.5286608881 
2273	 17.0628939052329 
2274	 2.31419379137548 
2275	-2.05093738145459 
2276	-15.444100692409 
2277	-22.2326495505978 
2278	-14.9861103644929 
2279	-18.880789502339 
2280	-21.2274070300344 
2281	-17.6104504377388 
2282	-21.0587128512242 
2283	-12.9703075167802 
2284	-8.81422435450183 
2285	-7.91284913627867 
2286	-6.69136672396048 
2287	-7.67356088191626 
2288	-9.57380927985096 
2289	-15.4391307022093 
2290	-13.3974091582176 
2291	-7.50188544565827 
2292	-4.78180128545133 
2293	 7.67154152274346 
2294	 6.29943141960046 
2295	-9.99736519184262 
2296	-7.81791247296606 
2297	-4.67513633648401 
2298	 2.74392229620965 
2299	 28.0931425347643 
2300	 32.843441969242 
2301	 28.9086996530503 
2302	 22.4530869450112 
2303	 3.17890136138819 
2304	-4.22894757675547 
2305	-12.5375174375146 
2306	-11.9061440096715 
2307	-2.23720568486623 
2308	 3.84049826831426 
2309	 15.3991440918421 
2310	 26.6188349317656 
2311	 20.6455603871788 
2312	 16.1328633895468 
2313	 8.26642873537515 
2314	-4.57992674457972 
2315	-5.12955997753962 
2316	-5.81045844390138 
2317	-2.03985432975759 
2318	 5.94046204039763 
2319	 8.53579445514973 
2320	 26.190127389421 
2321	 33.5054171437736 
2322	 32.9407325660222 
2323	 37.5051894720214 
2324	 24.4297569787956 
2325	 12.1697853635891 
2326	 3.97630865328386 
2327	-6.22202751587972 
2328	-7.52214060936392 
2329	-9.77124666731974 
2330	-12.0561450926164 
2331	-9.75100375203819 
2332	-7.71143853491019 
2333	 0.336280766120527 
2334	 8.81651465668341 
2335	 13.7391673530877 
2336	 19.8980868927998 
2337	 21.8343849239655 
2338	 18.6129571962609 
2339	 17.1102313116617 
2340	 11.0920054690064 
2341	 4.98859016554411 
2342	 5.18319024014573 
2343	-4.0526764764682 
2344	-9.35375165848453 
2345	-8.07947296173331 
2346	-14.434120735308 
2347	-15.9189077936416 
2348	-22.8255411804579 
2349	-34.5520740925076 
2350	-34.3254195594517 
2351	-36.9499612999385 
2352	-29.3285102144805 
2353	-10.4503984498385 
2354	-2.25951470541964 
2355	 4.79843262155843 
2356	 7.65749228998534 
2357	 4.61963084072653 
2358	-5.48390414352505 
2359	-2.98774014138199 
2360	 8.45776378724778 
2361	 8.91305065413525 
2362	 17.3803081008269 
2363	 22.5500494799826 
2364	 20.8823362303233 
2365	 24.1099270092772 
2366	 27.4887410438329 
2367	 21.2561675388007 
2368	 15.5455904719213 
2369	 10.8341319718614 
2370	-1.29838136238426 
2371	 0.490989812443352 
2372	 2.65444515453341 
2373	-0.264604483410855 
2374	-0.302503456950607 
2375	-7.66000705499165 
2376	-4.50450579872696 
2377	 3.55132936749313 
2378	 6.61519389401757 
2379	 13.0661630805401 
2380	 7.60329632533358 
2381	-3.42460881637559 
2382	-4.48827395287859 
2383	 0.363930194387299 
2384	 13.4232529980374 
2385	 21.7187047953701 
2386	 34.5357049909027 
2387	 48.3186215326231 
2388	 41.9929459447248 
2389	 50.8479724144864 
2390	 52.6446719365693 
2391	 42.3162060232721 
2392	 48.0765551080189 
2393	 38.048072412677 
2394	 31.7851597421057 
2395	 31.0455543915121 
2396	 22.55246221867 
2397	 16.7321899378667 
2398	 3.65981415744856 
2399	-6.70284361294823 
2400	-15.6819302532922 
2401	-21.7193563472953 
2402	-18.4241979074892 
2403	-12.3245382922179 
2404	-12.5047579862899 
2405	-12.4955112172724 
2406	-7.87817163751542 
2407	-16.8952052768466 
2408	-18.3127909758326 
2409	-3.26331948138658 
2410	 8.94117752929583 
2411	 26.7146690794223 
2412	 46.5090057450993 
2413	 45.2807233922614 
2414	 34.2949444644358 
2415	 22.9456457631179 
2416	 5.68150131539788 
2417	-2.60911793702945 
2418	-9.2191962903403 
2419	-5.69044226760025 
2420	 9.12789806246218 
2421	 16.8015074219069 
2422	 28.1523445317245 
2423	 26.9601991907901 
2424	 9.62037948515411 
2425	 0.815390000141936 
2426	-3.52788359640263 
2427	-0.68303630062012 
2428	 10.3135165673988 
2429	 18.973109959812 
2430	 20.1905108329512 
2431	 9.68914001742635 
2432	-7.95481009862853 
2433	-24.5450446670856 
2434	-31.8658340743871 
2435	-33.840893649456 
2436	-23.1885023494516 
2437	-7.17640953016433 
2438	-7.88572624819978 
2439	-8.5885966997286 
2440	-14.8304491895412 
2441	-22.9655162078692 
2442	-20.216100171904 
2443	-19.300421229274 
2444	-9.9192858212084 
2445	-10.741355647829 
2446	-18.578446338959 
2447	-16.2287335616746 
2448	-19.3085685956606 
2449	-15.9410161738174 
2450	-13.9140323091972 
2451	-20.5542409470852 
2452	-17.3094375396108 
2453	-19.6766406927339 
2454	-13.3082231222622 
2455	 4.51253948801069 
2456	 5.54224250027831 
2457	 19.7714646999257 
2458	 29.4389190103724 
2459	 27.209112303373 
2460	 29.2252097902815 
2461	 20.0607009035243 
2462	 14.6489017718055 
2463	 7.1842965985321 
2464	 5.2890401014424 
2465	 0.625644074530948 
2466	-3.9916431575913 
2467	-6.5674045790522 
2468	-9.37805410094541 
2469	-0.745319839657325 
2470	 9.37360553196605 
2471	 12.8164091323455 
2472	 15.4050862636699 
2473	 8.24120328439168 
2474	 3.48412526563623 
2475	 3.8278650412151 
2476	-4.12013775041089 
2477	-2.55815010011916 
2478	 2.90034226921799 
2479	-0.157161431069634 
2480	-7.52911173778646 
2481	-16.0851139399074 
2482	-22.2057864581425 
2483	-26.5982023196719 
2484	-15.1510332346769 
2485	 3.62967934245409 
2486	 13.2294793442868 
2487	 22.6633129920016 
2488	 25.5815252651765 
2489	 25.038581088516 
2490	 17.2040560755534 
2491	 14.5156335147653 
2492	 13.7729361154707 
2493	-5.02374418750864 
2494	-8.78202031178124 
2495	-9.2368530406258 
2496	-14.0286174504317 
2497	-9.8125490891512 
2498	-12.3231308492564 
2499	-19.8431332746261 
2500	-24.2805215602398 
