Wavelength	2mm_BlackPLA00000.asd
350	 1.436542308661 
351	 1.84608703844725 
352	 2.88272200523632 
353	 2.2998853585342 
354	 1.4105411510528 
355	 1.32805115259279 
356	 2.09149206843601 
357	 0.450517926326636 
358	 0.130064934111392 
359	 1.08372955283675 
360	 0.212405737448083 
361	 1.31987972312296 
362	 1.88595386284242 
363	-0.340367421326401 
364	-0.245707461268391 
365	 0.877509838520499 
366	 1.43027481036992 
367	-0.484190931106123 
368	-0.998966435941147 
369	-9.92374879184757E-03 
370	 1.08529605644886 
371	 0.318732734898928 
372	-0.390219452048379 
373	 5.60466364854785E-02 
374	 0.629581756846398 
375	 1.47137990682961 
376	 2.24387459911573 
377	 2.32437209887671 
378	 0.25632230914661 
379	-1.09690870828495 
380	 1.18823245377156E-02 
381	 0.222503153270235 
382	 0.991626506201668 
383	 1.86067008167848 
384	 0.803129098634278 
385	 0.952152794990456 
386	 1.29931680745622 
387	 0.518369215803936 
388	 1.23534200427394 
389	 1.4800713864246 
390	 0.654662755854108 
391	 0.526915321645222 
392	-1.47545034437338E-02 
393	-0.240238284410803 
394	 0.960814115017608 
395	 1.2949728069782 
396	 0.254359620736877 
397	-1.53511839770628 
398	-1.27505167776221 
399	-0.27888443011307 
400	 1.13792073132744 
401	 3.23183152699946 
402	 2.09069931320804 
403	-0.141766684721138 
404	-0.450855408944842 
405	 0.845899287228111 
406	 1.44350456961448 
407	 0.387383741874917 
408	-1.52072735657013 
409	-0.198168029459429 
410	 2.06999470865234 
411	 0.650588835469716 
412	-1.02070741162754 
413	-0.814560431373754 
414	 1.42802736037304 
415	 0.866381221890307 
416	 1.45409941346097 
417	 2.88771183830578 
418	 1.18812403555874 
419	 0.754899558965531 
420	 0.835631050224684 
421	-9.41546305716212E-02 
422	 0.591941794654448 
423	 0.51330311006281 
424	-0.680966731050872 
425	 1.53151391004816 
426	 1.23729479643577 
427	-0.833761494151146 
428	-0.617641038170636 
429	-0.996734804644725 
430	-0.746990245935684 
431	 0.987342077806543 
432	 1.15810691931368 
433	 0.675565864755924 
434	 0.18731295237824 
435	-2.15518466178505E-02 
436	-0.549620331365215 
437	-1.13013494663578 
438	-1.18797494148194 
439	-0.594073537532599 
440	-0.207244198349406 
441	-0.364406723951528 
442	 0.518029436424586 
443	 3.46065168624071E-02 
444	-1.14759429493797 
445	 0.439701742366291 
446	 2.06409615665643 
447	 2.21018875167733 
448	 0.495940259127924 
449	 1.48906443691671 
450	 2.24577135603592 
451	 1.28028980566222 
452	 1.42563585490148 
453	 2.0914033805086 
454	 2.6708045132184 
455	 2.40241321015995 
456	 1.62708069778557 
457	 0.373873328608563 
458	-1.09999683638661 
459	-1.35115811018947 
460	-0.631762263362645 
461	 0.445638919494914 
462	 0.832221263232534 
463	 0.216279418784964 
464	-0.931673555392761 
465	-1.57621107861478 
466	-1.02980997785454 
467	-0.399328277518041 
468	-0.590205975341221 
469	 8.94365706581284E-02 
470	 1.22579347256995E-02 
471	-0.890020857762407 
472	-8.40310388357399E-03 
473	-0.333107530781413 
474	-1.1559882903627 
475	-0.322760680984106 
476	-0.933520479849542 
477	-1.37351168938975 
478	-0.300186876793503 
479	-0.388531687724535 
480	-0.287053132802681 
481	 0.456347488979739 
482	 1.06425593577997 
483	 1.19778830371949 
484	 0.59583838550933 
485	-0.71320918886064 
486	-0.409731115954773 
487	 3.32251088424821E-02 
488	-0.509543624604717 
489	 0.233427389468187 
490	 1.39379311673157 
491	 1.92300904625059 
492	 0.325929367036753 
493	-0.484077605069661 
494	-0.599951475889399 
495	-1.17116128764835 
496	-1.67825677080248E-02 
497	 0.680009075853443 
498	-0.491919996055409 
499	-4.17241322030251E-02 
500	-0.662286498135189 
501	-2.48544413120455 
502	-2.31283642069878 
503	-1.17416022201937 
504	-0.306528866321676 
505	-0.950243769572705 
506	-0.926468303254852 
507	-0.810105812990596 
508	-1.18624215031949 
509	-1.16407919723288 
510	-0.994127879256728 
511	-0.811594592629758 
512	-0.586757874484651 
513	-0.393738719342947 
514	-0.492926435597745 
515	-1.16100965243779 
516	-1.89763228731693 
517	-1.80959383781398 
518	-0.599750194423881 
519	-0.104022482467549 
520	-0.24844693874287 
521	-0.528432585627791 
522	 0.298124074354679 
523	 0.274552143466649 
524	-0.445547961264056 
525	-0.731384873318571 
526	-0.316203047011397 
527	-0.771246782486014 
528	-2.75759940883344 
529	-1.86151484163681 
530	-1.21117162683909 
531	-1.95491811290599 
532	-1.86466447191238 
533	-1.70632222112923 
534	-1.67772635238433 
535	-1.77809929882891 
536	-1.72883771902869 
537	-1.45351450577718 
538	-1.07883965506441 
539	-1.36765030552549 
540	-1.94693759958837 
541	-2.53449269051471 
542	-3.17969240464239 
543	-3.21076610289996 
544	-2.30821465478391 
545	-0.449503627111073 
546	 0.220562969928536 
547	-0.141335529448759 
548	-0.623074497868449 
549	 0.337582104803874 
550	 2.48485739326368E-02 
551	-1.95438463583156 
552	-0.205718314386893 
553	 0.211072130197779 
554	-1.37471961194087 
555	-2.58036418144339 
556	-1.49449996368821 
557	-0.483140990002962 
558	-2.2263745088302 
559	-1.92275680983202 
560	-1.1942524929364 
561	-1.15701903921692 
562	-5.22919717431471E-02 
563	 0.439152538875694 
564	-9.09742411206366E-02 
565	-0.958912312342526 
566	-1.31033834953378 
567	-1.79870827458297 
568	-3.20663339719233 
569	-2.1605270022815 
570	-0.774380745048819 
571	-0.933264732240593 
572	-2.05249170362086 
573	-2.03900371476266 
574	-0.878233953696789 
575	-1.07795184299101 
576	-1.45842312086818 
577	-1.3891527491746 
578	-0.531312055241317 
579	-0.662257100964594 
580	-1.29793054500351 
581	-1.82259040935053 
582	-2.87690849287977 
583	-2.80966062568522 
584	-1.56606617556991 
585	-1.62989416981041 
586	-1.78410709866634 
587	-1.61306269061617 
588	-1.02900900461559 
589	-1.09782984585874 
590	-1.26457883465121 
591	-0.882211160265192 
592	-0.629916433919831 
593	-0.345880926492168 
594	-0.236534046475499 
595	-1.55215500363736 
596	-2.25055938734405 
597	-1.6376421273215 
598	 0.103525780076693 
599	 0.934906464648623 
600	 0.766733084028364 
601	 6.86821297565477E-02 
602	-1.39122337810993 
603	-2.21559392465295 
604	-1.71314728790222 
605	-0.923170323438182 
606	-0.45799768419481 
607	-0.579072590419899 
608	-1.222173357372 
609	-1.6350302568079 
610	-1.73798469533443 
611	-1.71313552775054 
612	-1.6344178964397 
613	-1.57589325734723 
614	-1.56649671559598 
615	-1.4964275387718 
616	-1.62751351437365 
617	-1.91029602126695 
618	-1.94108373038943 
619	-1.22988938117601 
620	-0.256289991689652 
621	 5.39022881593993E-02 
622	-0.185525924816376 
623	-0.985664521108637 
624	-2.09092497022929 
625	-2.4163786101625 
626	-1.54911068229974 
627	-0.137777273202416 
628	-0.680104156650104 
629	-1.67672098999061 
630	-2.0542897656696 
631	-0.871865413233781 
632	-0.125381959734243 
633	-0.139405147935841 
634	-0.620202052615903 
635	-0.295878828928692 
636	-0.180961601207007 
637	-0.901345347341657 
638	-2.31480326359003 
639	-2.61794551583508 
640	-1.63960860686735 
641	-0.464156389887251 
642	-1.65505555860873 
643	-3.21361639318532 
644	-2.45266255050133 
645	-2.41666012663487 
646	-2.02344767470438 
647	-0.806524192760353 
648	-0.877333720205435 
649	-0.895222286255475 
650	-0.757260843306802 
651	-1.55148685176288 
652	-1.28771219088186 
653	-0.810939745401931 
654	-1.71591067533261 
655	-2.43366244270688 
656	-1.75784138230223 
657	 0.212495828975188 
658	-0.490793464553313 
659	-1.46553615675438 
660	-1.68092816876288 
661	-1.72298603994548 
662	-2.32375034566033 
663	-2.44826109958029 
664	-0.581387879647825 
665	-1.12962166011064 
666	-2.21705581800927 
667	-1.80090364517651 
668	-1.81868381479231 
669	-1.84984955923376 
670	-1.80706661721389 
671	-2.37524808330305 
672	-2.1058133684504 
673	-1.46560551996115 
674	-1.8968691765652 
675	-1.29183315056443 
676	-0.943014193016506 
677	-2.18116416224734 
678	-2.95398347982748 
679	-2.91087551015717 
680	-2.25653591883058 
681	-2.15075087252582 
682	-1.41515098262758 
683	-0.10074712286961 
684	 0.906704953814605 
685	-0.222879576351538 
686	-1.73822190630067 
687	-1.54802781754214 
688	-2.25319086421679 
689	-2.33803794612089 
690	-1.19270143435303 
691	-0.934048021921057 
692	-0.842953849169847 
693	-0.936233925019181 
694	-1.77152448471215 
695	-1.23865236369884 
696	-0.037097818202094 
697	 0.261504438790113 
698	-1.21430898039269 
699	-1.66684554817956 
700	-0.107197514918786 
701	-1.54961801396292 
702	-1.16182002079351 
703	 0.709215589844532 
704	-1.48792908667797 
705	-2.21622074106876 
706	-1.60582113069889 
707	-1.53333758734004 
708	-1.12218155047018 
709	-1.39332368552848 
710	-2.69332461006602 
711	-2.84401147714866 
712	-2.56975780959821 
713	-2.44200748246754 
714	-2.98855229459822 
715	-2.7954491901854 
716	-2.33720123058127 
717	-2.67420881914075 
718	-2.57342917489077 
719	-2.07503683968004 
720	-1.4160591548968 
721	-0.726983831801209 
722	-0.597635000683556 
723	-1.10781608446575 
724	-1.71381671514807 
725	-2.53178090871197 
726	-3.06373286055054 
727	-2.64351071417099 
728	-1.63420641119162 
729	-1.04302283691988 
730	-1.30625330458442 
731	-0.494637492236304 
732	-0.398846034337862 
733	-1.51213089047958 
734	-2.74004739071067 
735	-2.37328682218566 
736	-1.27739966912637 
737	-1.38088172093871 
738	-0.751656177333235 
739	-0.936310071700315 
740	-2.63090059910182 
741	-1.52706611973813 
742	-1.12396348145925 
743	-1.9226391658151 
744	-0.089482086910279 
745	 0.175985945041161 
746	-1.08937366901206 
747	-2.01437729702241 
748	-1.43506530337878 
749	-1.33655569951153 
750	-2.85713627429052 
751	-2.42759691095774 
752	-0.945922060013904 
753	 7.27969090716476E-03 
754	-2.41011734514505 
755	-2.40510549408593 
756	-1.33145014436913 
757	-2.9632592904108 
758	-2.09612665187394 
759	-0.183966658750798 
760	 0.706679982597674 
761	-0.194815229238534 
762	-1.63974032399476 
763	-2.5503498655716 
764	-1.88322314202679 
765	-1.98261737872341 
766	-2.14421403609232 
767	-0.840122932844835 
768	-0.609577481099693 
769	-1.27198818588997 
770	-2.12649081006623 
771	-2.0448767299732 
772	-2.35468830041887 
773	-2.66039029540115 
774	-0.701647223874035 
775	 0.051006185265509 
776	-0.369690240329558 
777	-0.890881286741996 
778	-2.48263360305244 
779	-3.14566050165917 
780	-2.10155473716332 
781	-2.32037572421809 
782	-1.91622259270492 
783	-0.875806995616573 
784	-0.673276373201251 
785	-1.39170880286541 
786	-2.87785783487527 
787	-4.36042244007797 
788	-2.17882032002796 
789	-0.815038812916171 
790	-2.023541864262 
791	-0.587237750715645 
792	-0.925617170323355 
793	-2.36549932272024 
794	-1.2280824403619 
795	 0.524075376623577 
796	 0.668570758072327 
797	-1.64985606711714 
798	-0.926947031910982 
799	-0.522497845566164 
800	-1.57439731781499 
801	-1.18026493722929 
802	-1.49690134116363 
803	-1.88226955286204 
804	-0.738507031367638 
805	-0.733938789110029 
806	-1.05223899807842 
807	-0.920803404637125 
808	-1.73225556521468 
809	-1.71713276986742 
810	-0.696438432879856 
811	-0.188753933271595 
812	-0.915920730918606 
813	-1.78024641362763 
814	-1.33230292312843 
815	-0.825204841117164 
816	-1.38573478719367 
817	-2.94283081791223 
818	-2.79474059506933 
819	-2.40064554223944 
820	-2.0869756980247 
821	-1.55782712707721 
822	-1.71837527166191 
823	-2.37011070702422 
824	-2.83535762257263 
825	-1.34417757821709 
826	-1.3461804103207 
827	-2.88848056702742 
828	-0.544687012370679 
829	-1.16048041160714 
830	-3.13566684197748 
831	-1.96871308221442 
832	-0.649934634460672 
833	-0.719539247789114 
834	-2.17418047991438 
835	-1.33149926347356 
836	-1.52188180674996 
837	-2.39796868076055 
838	-0.774354286341802 
839	-0.2959910558445 
840	-0.946826870054482 
841	-1.66280966493999 
842	-0.946157105370885 
843	-1.02300011908933 
844	-2.39397954499865 
845	-2.81205153943663 
846	-1.50128604188231 
847	 8.94487878547049E-02 
848	-0.278725280860072 
849	-1.02693056884446 
850	-0.900418980325273 
851	 3.15290941452996E-02 
852	-1.77706848636122 
853	-2.56767761522085 
854	-1.89363613572127 
855	-1.69996438354328 
856	-1.93009655767959 
857	-1.3921148384632 
858	 0.262515608304778 
859	-1.43143698403113 
860	-2.75118305998981 
861	-2.48113524510504 
862	-2.87188221422643 
863	-2.17516139709547 
864	-0.944157159776491 
865	-0.457313513711981 
866	-1.25701680856907 
867	-1.82652829069745 
868	-1.5463420751577 
869	-1.9855284604666 
870	-2.02352385213605 
871	-1.75397226486573 
872	-1.81334762858598 
873	-1.9013527731279 
874	-1.04471438583462 
875	 0.641339241360742 
876	-0.407172076596623 
877	-1.64447186529028 
878	-2.16015881060724 
879	-2.31397154033071 
880	-1.98850503419552 
881	-1.63786148577865 
882	-1.67986925169854 
883	-1.87582624744324 
884	-2.23501293974346 
885	-2.33604826983446 
886	-1.20300068117827 
887	-1.05783185156735 
888	-1.5244559683378 
889	-1.62434961892377 
890	-2.01421537290154 
891	-2.65854896956951 
892	-2.96545740673199 
893	-1.30285251410701 
894	-1.21397905084838 
895	-1.8217407962341 
896	-1.00600992769235 
897	-1.96230741914063 
898	-2.02583547072176 
899	-0.435357571119589 
900	-1.63488274776993 
901	-1.44017004335549 
902	-0.369679805812344 
903	-0.890668914013475 
904	-1.42138260938092 
905	-1.44655219202964 
906	-1.01398950019335 
907	-1.11210702812712 
908	-1.80486506827976 
909	-2.32315757572794 
910	-1.55914714904245 
911	-1.79360201558154 
912	-2.13261789662273 
913	-1.53444131488408 
914	 0.381951962158647 
915	 0.299227818544359 
916	-1.55454020563516 
917	-2.47148752982922 
918	-2.00475055110309 
919	-1.11866517338357 
920	-0.77612598969328 
921	-1.05024801108451 
922	-0.943275006142611 
923	-0.661355091557915 
924	-1.22779300670154 
925	-1.25151789467732 
926	-1.34595269196253 
927	-1.88074437847613 
928	-1.21993806991439 
929	-0.882574033005055 
930	-1.1691201279469 
931	-1.44256762396645 
932	-1.27238365839317 
933	-1.45099201507163 
934	-2.13381827167462 
935	-0.631890300183948 
936	-0.151004826991368 
937	-0.774685777617479 
938	-0.475134075833798 
939	-1.6438401750642 
940	-2.21500266319404 
941	-0.959957764106135 
942	-1.04312051319861 
943	-1.82690762255085 
944	-2.64756498166747 
945	-2.78680360235054 
946	-2.19671493611296 
947	-1.91883641264923 
948	-2.49911821043973 
949	-3.09540207275684 
950	-1.61612838722601 
951	-8.28101473663751E-02 
952	-2.11412626743323 
953	-1.91002945411521 
954	-1.15704650021586 
955	-1.19703547281847 
956	-0.467713697345205 
957	-0.502311638789801 
958	-0.696155553651974 
959	-2.16149292043255E-02 
960	-1.84691860446008 
961	-2.65785550456626 
962	-1.3702700822389 
963	-1.93876246452479 
964	-0.983328059158171 
965	 0.70368590595056 
966	 1.90404879378214 
967	 1.94645069012392 
968	 1.67559418686525 
969	 2.18909347411549 
970	 0.706484662466521 
971	 3.60075261896088E-02 
972	 2.15538350993141 
973	 2.16741817935568 
974	-0.839006836509055 
975	-2.21346914212011 
976	-3.03939806575167 
977	-3.21317444836452 
978	-5.66924809586561 
979	-7.74469574983006 
980	-7.31108077815266 
981	-6.15263435651208 
982	-4.47073858592878 
983	-0.62761421110292 
984	 0.822525446001578 
985	-1.3400311880124 
986	-3.61827253856529 
987	-9.1912320194937 
988	-10.6042640193284 
989	-10.4767222867317 
990	-9.89198674728766 
991	-6.67574581429743 
992	-5.22404790052826 
993	-3.86920627909304 
994	-5.117647390218 
995	-5.20769091080867 
996	-1.00818225020095 
997	 1.94447246340243 
998	 1.31657301251391 
999	-1.96922786424338 
1000	-3.48751779444797 
1001	-3.55908938244688 
1002	-3.36337415724782 
1003	-2.84265006015054E-02 
1004	-0.351242848026738 
1005	-0.663303884455614 
1006	-0.508784658073054 
1007	-1.16489592958134 
1008	-3.78921053469079 
1009	-5.87196715306519 
1010	-4.1985704601224 
1011	-3.70856532977586 
1012	-0.564985954475226 
1013	 2.49957909489671 
1014	 2.97493469159373 
1015	 1.93651507482293 
1016	-2.62207274087007 
1017	-3.77479047947463 
1018	-1.10254943987101 
1019	-0.828970976541652 
1020	-3.59334930146369E-02 
1021	 1.64937239816914 
1022	 2.44632718310632 
1023	 1.26611044651465 
1024	-1.75004859639194 
1025	-4.52606485008731 
1026	-5.95679346856477 
1027	-10.7561884687646 
1028	-14.0787166458322 
1029	-12.1824736561357 
1030	-10.4990436377909 
1031	-9.70855492239628 
1032	-7.38640137075217 
1033	-6.24842104726074 
1034	-8.41275574935414 
1035	-6.63048351373762 
1036	-2.35906708067319 
1037	-0.267557566551658 
1038	 2.04012086877829 
1039	 1.73652752601049 
1040	 1.01087415222054 
1041	-2.85280470696057 
1042	-3.51355353044748 
1043	-3.160977172758 
1044	-2.78298734176964 
1045	-1.19558322417125 
1046	-1.62711390656289 
1047	-4.69867930891272 
1048	-5.36820643547644 
1049	-5.11803142633961 
1050	-4.14880973768025 
1051	-3.60787249073811 
1052	-3.57957265094869 
1053	-4.29464094344733 
1054	-6.12294370837867 
1055	-4.38069927970742 
1056	-2.72058540758352 
1057	-1.49318695709941 
1058	 0.98564291519518 
1059	 1.04532514733724 
1060	-0.606566448031556 
1061	-0.922493416213818 
1062	-1.98401653064093 
1063	-3.59689122637971 
1064	-1.66379319518158 
1065	-1.69409975383291 
1066	-1.7554702514044 
1067	-0.228031849191493 
1068	-2.32741089402303 
1069	-3.72091747734091 
1070	-3.89936861565103 
1071	-3.54153567292857 
1072	-2.16357656889904 
1073	-4.1508185814122 
1074	-3.82338520585889 
1075	-4.24175005027435 
1076	-3.67436981176704 
1077	 1.33847491392615 
1078	 1.47474501917187 
1079	-2.64436728476227 
1080	-3.79606172834547 
1081	-6.07436420562658 
1082	-7.52895689204582 
1083	-7.39690357747887 
1084	-6.96186769778209 
1085	-4.84024974923791 
1086	-4.27651834593209 
1087	-1.52922233533828 
1088	 0.724630043526429 
1089	-9.14991886496839E-02 
1090	 1.55800419813258 
1091	 0.71517898728301 
1092	-2.13912173990064 
1093	-2.37874957437786 
1094	-4.07155022188537 
1095	-3.09538866354639 
1096	 3.85012524081838 
1097	 4.62080864957264 
1098	 2.7894771907722 
1099	 1.90884966051416 
1100	-2.58115685781569 
1101	-5.05980856325191 
1102	-5.98926026829153 
1103	-6.07855967162994 
1104	-5.81266173741935 
1105	-5.58003597436601 
1106	-2.22956369575197 
1107	 1.60230156394264 
1108	 4.03247528138402 
1109	 6.39683761117416 
1110	 5.43732805087289 
1111	-1.23632580564248E-02 
1112	-0.798308886744091 
1113	-1.3919246665049 
1114	-2.08059295419778 
1115	-0.663054925086562 
1116	 0.508752880714951 
1117	 0.176853381251135 
1118	 1.10359234210325 
1119	 6.36225842990266 
1120	 6.77439655727324 
1121	 3.0416661836164 
1122	 1.69799163840636 
1123	-1.71258662945127 
1124	-3.064918904666 
1125	-3.22449845643813 
1126	-0.769949203580437 
1127	 1.65352246272878 
1128	 6.06164513836527 
1129	 6.1600195562237 
1130	 6.29430883258806 
1131	 4.38108027989679 
1132	-3.1758087603872 
1133	-4.58016815190547 
1134	-3.08132783522681 
1135	-3.36021963350409 
1136	-1.27553265914977 
1137	-1.70882841942882 
1138	-5.25692166415265 
1139	-6.48237627718663 
1140	-8.12769351060662 
1141	-7.93328061326947 
1142	-5.10007275604774 
1143	-3.70812202292889 
1144	-1.80004248125841 
1145	-0.222277715265727 
1146	 0.737225898972798 
1147	 1.34480616772334 
1148	 1.76079496120786 
1149	 2.62364381560511 
1150	 1.99572239798096 
1151	-0.164987033260317 
1152	-0.87937634551571 
1153	-2.5657335081402 
1154	-1.73708869255649 
1155	 1.44641622319943 
1156	 2.80779767850958 
1157	 5.38341770881085 
1158	 6.15370631733605 
1159	 4.64562897500679 
1160	 4.66986010423899 
1161	 5.83100412374399 
1162	 4.94431789471182 
1163	 3.18264216280752 
1164	 1.66452095561053 
1165	-2.91031677261414 
1166	-4.16733692289607 
1167	-2.52830160997365 
1168	-1.23459295573856 
1169	-0.186301893510605 
1170	-2.4245544132199 
1171	-2.54268309986424 
1172	-4.00311168755477 
1173	-4.74587780726279 
1174	-3.97454093463434 
1175	-3.19813051968286 
1176	-2.97219705943233 
1177	-3.22597389221305 
1178	-2.66712404210759 
1179	-2.41257813129713 
1180	-3.91580629700985 
1181	-4.20805562985356 
1182	-1.99932561055788 
1183	-2.11968548282373 
1184	-3.94396640882188 
1185	-4.90375836768804 
1186	-8.02199602570851 
1187	-8.20844995492 
1188	-6.53932900632407 
1189	-4.58336277182974 
1190	 0.883746258420476 
1191	 4.16404614925818 
1192	 4.20323049261263 
1193	 3.39179229209305 
1194	 1.25193162723863 
1195	-0.784296378906901 
1196	-0.48233777576703 
1197	 2.5906918966617 
1198	 4.07488513544421 
1199	 6.91931609035203 
1200	 7.01111830445808 
1201	 4.36110704062854 
1202	 3.70596072632604 
1203	 2.95772849466826 
1204	 1.98430859024363 
1205	 2.30619687335166 
1206	 1.99291734168669 
1207	 0.203705118663974 
1208	-0.924551032746657 
1209	-0.507398721216857 
1210	-2.09947170820696 
1211	-5.08747322688315 
1212	-8.20783492061449 
1213	-10.4804675902822 
1214	-10.4475726639311 
1215	-8.66029350062309 
1216	-6.30972590782856 
1217	-3.19565315392702 
1218	-1.44041511626284 
1219	-0.660812450803568 
1220	 2.882487115531 
1221	 3.91391434899318 
1222	 3.77381577327021 
1223	 3.27486339745602 
1224	 1.1849850997101 
1225	 0.192773490093656 
1226	-0.543932780737644 
1227	-1.57024315608765 
1228	-2.16201032795071 
1229	-3.01527978697638 
1230	-4.45717319352148 
1231	-5.12759405592749 
1232	-4.93246487074773 
1233	-6.09606516908935 
1234	-9.50823805026903 
1235	-9.90009232986264 
1236	-9.63937096406811 
1237	-8.29492265773332 
1238	-5.21138674823388 
1239	-0.818468431226873 
1240	 1.60705776148883 
1241	 2.02924639897669 
1242	 1.56936544584026 
1243	 0.749290387363055 
1244	-1.21881372419666 
1245	-3.25128455989282 
1246	-3.04233865215159 
1247	-0.96708828836923 
1248	 1.04015911655877 
1249	 2.90689235605378 
1250	 3.27975563394464 
1251	 1.80879866923833 
1252	-0.104734054046467 
1253	-3.24039582072262 
1254	-5.40532839672335 
1255	-8.43565410558923 
1256	-8.59306071258036 
1257	-6.84480624317305 
1258	-6.001801111057 
1259	-4.35833733762114 
1260	-2.96448209634297 
1261	-1.61218318559556 
1262	-0.277448777094777 
1263	-0.812587886063805 
1264	-1.73355672541535 
1265	-2.98039790973468 
1266	-3.45796482420501 
1267	-1.43865540788259 
1268	 3.04193889548865 
1269	 3.77583179056674 
1270	 0.970852049817491 
1271	 0.333047249104884 
1272	-2.97940924928418 
1273	-5.72115987549033 
1274	-5.54814051535022 
1275	-9.05391179957028 
1276	-9.22993639917029 
1277	-7.83916365653735 
1278	-7.6552935509274 
1279	-6.92298364325754 
1280	-5.84435088391009 
1281	-4.88659773557878 
1282	-4.02570310986051 
1283	-2.32607005308726 
1284	 1.90607645609206 
1285	 1.65593518361516 
1286	-1.80099131974765 
1287	-2.5705567340853 
1288	-4.60801590119054 
1289	-5.76603227589715 
1290	-3.90364324451437 
1291	-2.0784253322333 
1292	-4.51717675003846 
1293	-7.37485433362703 
1294	-9.81211970750493 
1295	-13.3383226348683 
1296	-12.2139353027527 
1297	-9.2124383935132 
1298	-6.67079811628215 
1299	-1.13401098136263 
1300	 0.226892635600799 
1301	-0.658442449284165 
1302	 1.02064124099239 
1303	 0.533305886382779 
1304	-1.02651532531172 
1305	-1.73813280436756 
1306	-5.792956420895 
1307	-7.8565787477333 
1308	-4.92263955596901 
1309	-4.96931049309754 
1310	-3.00975733637129 
1311	-2.83427371109641 
1312	-3.67610004840828 
1313	-7.5581370037171 
1314	-7.80040553509497 
1315	-7.03628984597051 
1316	-6.70214630355043 
1317	-5.35457533748104 
1318	-4.89243546937579 
1319	-5.81383448147666 
1320	-3.89856718423245 
1321	-0.156046490468146 
1322	-1.31120272529413 
1323	-2.74106490690391 
1324	-1.28277969354854 
1325	-0.702153400221226 
1326	 2.47071316370924 
1327	 6.85089885395732 
1328	 8.02310699598849 
1329	 6.36711731336075 
1330	 3.11918471269493 
1331	 1.25339646693831 
1332	-0.804967015242407 
1333	-2.05438748268472 
1334	-3.80111622081667 
1335	-7.19738775331754 
1336	-6.55890954068634 
1337	-5.68887693976505 
1338	-6.56086263460713 
1339	-5.90282780726632 
1340	-6.34016081865118 
1341	-8.48777984554691 
1342	-8.12190035672207 
1343	-4.98945466536605 
1344	-2.78201698859874 
1345	-2.32335559620646 
1346	-1.75569055899444 
1347	-1.92352859138689 
1348	-5.41817091840942 
1349	-5.97644552011245 
1350	-5.25134640459783 
1351	-3.61827413022129 
1352	 0.96103989535473 
1353	 2.61841389835848 
1354	 3.99758763436116 
1355	 3.80437899642063 
1356	 2.31004200822071 
1357	 2.05070683895345 
1358	 2.54379767171712 
1359	 2.70124419754131 
1360	 2.76490748080281 
1361	 0.645339938874911 
1362	-2.55974235300136 
1363	-5.07967689228507 
1364	-5.85041109847862 
1365	-3.4107911151515 
1366	-1.88566791577996 
1367	 0.690284965588232 
1368	 2.77699460629472 
1369	-0.946002710954953 
1370	-4.19836573725626 
1371	-6.28981523558775 
1372	-8.75022910313011 
1373	-8.57783672703663 
1374	-5.00994157100774 
1375	-3.13818028158134 
1376	-3.98747775848029 
1377	-3.81718312786536 
1378	-4.49816239963573 
1379	-3.66884354556149 
1380	-3.53875165567726 
1381	-3.63798802820965 
1382	-2.04871732547655 
1383	-3.7749241431835 
1384	-2.96476375534184 
1385	-0.338670503815633 
1386	 0.122271381250836 
1387	 0.630017123773353 
1388	 0.845836553736955 
1389	 2.73030344814944 
1390	 2.73061775203325 
1391	 0.989831740697008 
1392	-0.121824155154194 
1393	-2.88456706060998 
1394	-3.65568610499498 
1395	-3.24445938572967 
1396	-2.64456016611351 
1397	-3.52452402932499 
1398	-4.22451048517648 
1399	-6.07989140837626 
1400	-4.12060053058925 
1401	-1.12338834348731 
1402	-0.621755233724338 
1403	-1.04367680105461 
1404	-3.79360891752206 
1405	-2.18641589750816 
1406	 1.85724908468857 
1407	 3.00201014248875 
1408	 3.47181058400078 
1409	 2.78263846432315 
1410	 1.24184429152081 
1411	 0.246447724514825 
1412	 1.64175806057549 
1413	 2.05669110423823 
1414	 0.548009643516634 
1415	-0.115032042964948 
1416	-2.20522872656217 
1417	-4.4298402071329 
1418	-4.72807584815834 
1419	-5.27476811463109 
1420	-5.61461436393248 
1421	-3.55995653678096 
1422	-3.36525919183784 
1423	-2.16260540433097 
1424	 1.36890359465696 
1425	 1.87727914906307 
1426	 2.86887824391175 
1427	 2.97314929486642 
1428	 4.18806624670261 
1429	 7.35785002617207 
1430	 8.46852580305993 
1431	 8.49485735098042 
1432	 4.55999053918467 
1433	-0.783844719487312 
1434	-3.40607469913883 
1435	-4.44214181879618 
1436	-4.77052896846374 
1437	-6.23820117313576 
1438	-6.68706557697442 
1439	-7.37651441948593 
1440	-9.05179806529029 
1441	-9.1608326187681 
1442	-10.0288560378559 
1443	-12.7396380571758 
1444	-13.3937828847593 
1445	-11.3289948441918 
1446	-5.33422643346141 
1447	-2.8805774580522 
1448	 1.13070674283658 
1449	 2.98040797394046 
1450	 0.703397723781033 
1451	-2.67490059634369E-02 
1452	-0.156120539689666 
1453	-0.440485566555333 
1454	-0.884635799541383 
1455	-0.435432324795872 
1456	-0.763988053902654 
1457	-1.87865795091027 
1458	-2.87566642506613 
1459	-3.63985994558128 
1460	-3.39870586945335 
1461	-0.984104071143536 
1462	 0.516997189020974 
1463	 0.788736175950937 
1464	-1.52730989634146 
1465	-3.86852249513914 
1466	-4.95514094659461 
1467	-5.95352443344968 
1468	-4.22198161203355 
1469	-1.48587710458773 
1470	 1.49007529278772 
1471	 3.35586698941897 
1472	 3.72722852923459 
1473	 3.71164715068235 
1474	-0.121780917279202 
1475	-4.13986868051755 
1476	-4.35270821764105 
1477	-5.49936323939594 
1478	-4.73656596481755 
1479	-2.08220137411923 
1480	-4.10818669130584E-02 
1481	 2.19862858179948 
1482	 0.807274869031399 
1483	-0.867373164561338 
1484	-0.502042895004611 
1485	-0.516037966595213 
1486	-6.36569894639211E-02 
1487	 1.84830831187262 
1488	 0.540962130042868 
1489	-3.24582479028977 
1490	-3.4815728449007 
1491	-3.35917689050035 
1492	-0.598777157003159 
1493	 1.96638301861735 
1494	 1.24929459539684 
1495	 1.50715509116336 
1496	-1.08147233622211 
1497	-3.72146578506974 
1498	-5.17383548043091 
1499	-8.03920024079056 
1500	-11.0411789953387 
1501	-12.8606010033832 
1502	-12.0828153059417 
1503	-10.8579773510658 
1504	-9.13838297063784 
1505	-7.29389432376215 
1506	-5.4998088161754 
1507	-3.7071625680983 
1508	-4.38518679276438 
1509	-4.42185625409821 
1510	-6.21712220137334 
1511	-9.02797011058425 
1512	-7.36884132240593 
1513	-7.30873339738282 
1514	-6.77732498558668 
1515	-4.03757932555689 
1516	-4.32285407795297 
1517	-4.28820058150157 
1518	-1.90576075236742 
1519	-1.73518834374853 
1520	-2.47581367696198 
1521	-2.12293937858081 
1522	-3.7986044145118 
1523	-4.84773713462728 
1524	-5.54450961869796 
1525	-7.31972691656433 
1526	-7.65127060834987 
1527	-5.71886627277483 
1528	-3.01370083616504 
1529	-0.55977800084933 
1530	 3.09461181932816 
1531	 2.35581414245242 
1532	-3.8314344888437 
1533	-7.51240060520313 
1534	-10.4685320334062 
1535	-13.0997117818738 
1536	-11.1767197302264 
1537	-9.41069175964926 
1538	-7.60047823735468 
1539	-4.61035627468586 
1540	-3.61141124910406 
1541	-2.5101078567771 
1542	-2.42960583610471 
1543	-4.0867689020287 
1544	-3.81403135386798 
1545	-1.09052118453273 
1546	-0.886273232740169 
1547	-2.53476781365205 
1548	-2.86594851634305 
1549	-5.62478894314786 
1550	-9.05241295886332 
1551	-8.25857595982732 
1552	-7.86220579608505 
1553	-6.86775165656354 
1554	-3.09767031852544 
1555	-2.47244421559303 
1556	-3.14563440747252 
1557	-4.12410275173745 
1558	-3.84198905905573 
1559	-4.48855839714484 
1560	-4.55511837635934 
1561	-0.440262271967291 
1562	 0.708174341263788 
1563	 2.00348390208393 
1564	 3.37915692962515 
1565	 2.50432819507458 
1566	 0.714566552378764 
1567	 0.939401890698963 
1568	 3.54821448475615 
1569	 2.45038413915339 
1570	 2.61605275252483 
1571	 1.7916308075349 
1572	-0.548536144890918 
1573	 0.762734650790954 
1574	-0.259140872462291 
1575	-1.5073942575031 
1576	-3.73700525982039 
1577	-9.22551026659329 
1578	-10.4982832440822 
1579	-9.09912266244376 
1580	-6.94764720425038 
1581	-4.75326674299643 
1582	-6.2227022913415 
1583	-8.03983831728217 
1584	-9.49311188449327 
1585	-8.61533867533978 
1586	-5.67857775643626 
1587	-3.33755697915896 
1588	-2.57982900896651 
1589	-4.270084199725 
1590	-3.0778540072382 
1591	-1.72280630149929 
1592	-2.62922864080304 
1593	-2.16204168345814 
1594	-2.20545121216943 
1595	-5.3943033665525 
1596	-7.86865171101332 
1597	-6.83172672132021 
1598	-7.0550285449769 
1599	-7.45864410148861 
1600	-5.53320049470895 
1601	-3.99483569711778 
1602	-2.82140853773135 
1603	-3.38912255867939 
1604	-4.11079272630905 
1605	-2.23779440578317 
1606	-2.00953396782677 
1607	 0.244561466897326 
1608	 3.87204888294039 
1609	 1.75374469392317 
1610	 0.407190938476849 
1611	 0.864455787566511 
1612	-2.14891491576128 
1613	-3.92634394896514 
1614	-2.38190477434802 
1615	-2.54766195160959 
1616	-2.12673698235547 
1617	-0.85446137629834 
1618	-2.88451698435858 
1619	-4.4157359272091 
1620	-4.69906351936057 
1621	-4.00411681803552 
1622	-3.75117538045403 
1623	-5.72948270595411 
1624	-5.92686099412254 
1625	-4.96607389786176 
1626	-3.44545279246975 
1627	-2.52784907157093 
1628	-4.89846282253538 
1629	-6.54396571538773 
1630	-6.26753823160723 
1631	-5.61768666575841 
1632	-3.42597865679335 
1633	-0.866763239666983 
1634	-0.637144876665257 
1635	-3.09320944733952E-02 
1636	 1.74720383558684 
1637	 1.4820343380132 
1638	-0.785520636991533 
1639	-1.56294349052845 
1640	-2.74623394507216 
1641	-3.64852267278185 
1642	-3.18803520224709 
1643	-3.76232510630947 
1644	-5.3313086202813 
1645	-6.59827598214455 
1646	-9.40862843543894 
1647	-9.19653604715341 
1648	-6.55669645754651 
1649	-4.98443646040225 
1650	-0.376585345558164 
1651	 0.529493407989694 
1652	-1.63988860120932 
1653	-3.35347654907305 
1654	-7.76341794032416 
1655	-9.15460504074671 
1656	-9.66873349583766 
1657	-9.10891636342228 
1658	-6.19248874238228 
1659	-3.96048949210154 
1660	-0.763987271695182 
1661	 1.68466132035807 
1662	 4.70553794449468 
1663	 4.97517117098249 
1664	 2.13977707165408 
1665	 2.43727565978444 
1666	 2.35673726360188 
1667	 3.66331917527949 
1668	 9.32153416667397 
1669	 8.85713815223417 
1670	 5.38469435631122 
1671	 3.26156508060671 
1672	-1.83413613675297 
1673	-3.05997438002688 
1674	-2.07765604422757 
1675	-2.02809326181193 
1676	-0.821570470507695 
1677	-1.18968339149629 
1678	-2.17620905863947 
1679	-2.65699750395979 
1680	-4.03412495423101 
1681	-3.30855556252379 
1682	-1.19574516098252 
1683	-0.764734279225002 
1684	 0.686148652095099 
1685	 1.0436584607631 
1686	 1.05325021505878 
1687	 0.970926696077801 
1688	 1.50550531101731 
1689	 2.7606727159019 
1690	 3.03474049115173 
1691	 3.6645590234058 
1692	 3.74014372312728 
1693	 1.98606455699638 
1694	 1.10157144303995 
1695	 1.25597255622743 
1696	 0.364435699064644 
1697	-1.21361846624168 
1698	-2.268077442635 
1699	-4.18629419018655 
1700	-5.04836820655222 
1701	-4.66333648706695 
1702	-4.73174475469938 
1703	-4.83809414739458 
1704	-4.51122269217507 
1705	-3.25106003554997 
1706	-3.56263484490378 
1707	-5.48349665776102 
1708	-4.89798053106663 
1709	-3.99944416274102 
1710	-3.12110334685025 
1711	 0.664594936689175 
1712	 1.42322610822025 
1713	-0.236189703473382 
1714	-0.885384247591841 
1715	-2.02782966874877 
1716	-2.81969179432514 
1717	-3.15744604430725 
1718	-4.55465034296583 
1719	-6.533532478522 
1720	-7.80856938589116 
1721	-9.69506912113761 
1722	-10.1631687515304 
1723	-9.3757959075562 
1724	-9.5175931885386 
1725	-10.0882180521822 
1726	-9.89639869695381 
1727	-7.48051168521816 
1728	-2.96437516774835 
1729	 1.09816951879746 
1730	 1.28645803308164 
1731	 4.24768100630032E-02 
1732	-2.21818311558602 
1733	-3.94061327432925 
1734	-3.64491328132434 
1735	-4.4520150123617 
1736	-7.4542071522216 
1737	-8.19948359732161 
1738	-7.62514577538365 
1739	-7.01953347770367 
1740	-4.28682628389135 
1741	-4.5029127897438 
1742	-6.1271630762538 
1743	-7.96211123863559 
1744	-12.8533939794985 
1745	-13.9734051129074 
1746	-13.5664146162536 
1747	-12.6829469820297 
1748	-9.65499828011298 
1749	-7.67490008914088 
1750	-5.61041613276026 
1751	-3.52620163712384 
1752	-0.746631260576554 
1753	 0.860794755703015 
1754	 1.88257565372453 
1755	 1.95159483234531 
1756	-9.235656017875 
1757	-13.7381797505108 
1758	-19.6755506163439 
1759	-16.828203432991 
1760	 0.178631744425602 
1761	 3.75226995282294 
1762	 8.70575578752486 
1763	 13.0081473259752 
1764	 9.11467056818512 
1765	-16.9850762858934 
1766	-14.9079334272357 
1767	 5.75333550655057 
1768	 9.92049971670427 
1769	 25.3577160922481 
1770	 23.6901684071129 
1771	 3.3290631756903 
1772	-10.2338514082548 
1773	-14.5510463312811 
1774	-14.2146661223663 
1775	-10.1049816223971 
1776	 8.07053974125762 
1777	 14.9287349679118 
1778	 21.1277024107467 
1779	 28.6079857429645 
1780	 20.2695955340139 
1781	 1.12337648991453 
1782	-8.88481219330668 
1783	-5.09004728514499 
1784	-1.40755592901082 
1785	 11.8672252904984 
1786	 22.8204193226764 
1787	 27.9876752180006 
1788	 24.1668098382631 
1789	 25.4371728696792 
1790	 27.7295872658834 
1791	 27.7944548553385 
1792	 26.8470799245301 
1793	 11.824751577015 
1794	 5.95013479463965 
1795	 2.24412975664415 
1796	 6.07896579323732 
1797	 5.3706664706189 
1798	 3.59412321610244 
1799	-8.28071599833808 
1800	-17.1834196401651 
1801	-25.1029105132565 
1802	-28.1809514927602 
1803	-31.2099790582422 
1804	-34.9436437147751 
1805	-32.9155857263994 
1806	-25.6360216956729 
1807	-19.2351948722513 
1808	-15.3750946258464 
1809	-5.05732396962733 
1810	-7.30470104042071 
1811	-12.6734979304409 
1812	-16.0278557879155 
1813	-20.5763511235223 
1814	-20.6075174932887 
1815	-16.8636767135912 
1816	-18.212431712241 
1817	-18.9631454285388 
1818	-20.4328921331541 
1819	-20.4356244994601 
1820	-24.4023693138571 
1821	-22.874531127405 
1822	-13.9163419084207 
1823	-8.62010067565121 
1824	-5.61153694474429 
1825	 0.243635038502272 
1826	 10.1004750670955 
1827	 15.9302889260141 
1828	 18.5068266909455 
1829	 27.1040630479364 
1830	 28.1357229610155 
1831	 26.6673528446561 
1832	 21.9510197527903 
1833	 7.38797622461918 
1834	 4.97685077889581 
1835	 4.67028124769326 
1836	 5.53190931836057 
1837	 22.8527168975529 
1838	 24.7486770923055 
1839	 13.0744615457996 
1840	 8.7027282909183 
1841	 1.22287021146255 
1842	-16.4908887092144 
1843	-22.4376154209723 
1844	-21.0902643212683 
1845	-22.1265494478354 
1846	-20.6124905678002 
1847	-19.5204997237614 
1848	-22.8044759600502 
1849	-16.1260597578287 
1850	-7.57942470516534 
1851	-0.958732387481955 
1852	 6.59318687332941 
1853	 20.3603417997603 
1854	 24.4183963779407 
1855	 23.83230661976 
1856	 24.4846631307423 
1857	 24.7964295003494 
1858	 15.8111189777629 
1859	 8.08176222389104 
1860	 6.52001527651949 
1861	-5.80783656587667 
1862	-20.7963951571518 
1863	-25.5851685010185 
1864	-29.3649200553285 
1865	-30.7157690065345 
1866	-20.6379896447513 
1867	-12.0031887191463 
1868	-1.53556447163992 
1869	 4.96470886120133 
1870	 16.9266845907942 
1871	 13.2415113264075 
1872	 5.31477723214225 
1873	 3.28688208545135 
1874	 8.87650606958618E-02 
1875	 2.97692078708041 
1876	 0.979610488074204 
1877	-0.191348911518615 
1878	-8.09387025736103 
1879	-18.097794695577 
1880	-25.1229509979561 
1881	-25.7882477438428 
1882	-18.4690451770388 
1883	-5.58787865007789 
1884	 3.72506624480425 
1885	 9.20200886803693 
1886	 16.1758172716843 
1887	 17.3553954756367 
1888	 12.9760888349561 
1889	 5.73943000178872 
1890	 6.38060790012955 
1891	-0.522065746378712 
1892	-6.48436532190512 
1893	 1.87992787722565 
1894	 3.90080041345802 
1895	 2.72878928420035 
1896	 2.84846530862548 
1897	 5.56973239845665 
1898	 10.409870133845 
1899	 11.1917095298295 
1900	 9.53626365017587 
1901	 16.5906344096258 
1902	 22.6494896257424 
1903	 7.68217356669876 
1904	 7.25632218474611 
1905	 12.7957638681403 
1906	 7.74859168709841 
1907	 16.1161961986491 
1908	 20.7621395785615 
1909	 25.4534639915208 
1910	 28.7588275641645 
1911	 35.6185772447068 
1912	 33.9036196820065 
1913	 26.0830695962997 
1914	 25.6967394636832 
1915	 10.7858028040391 
1916	-4.75222590916574 
1917	-7.28999611898461 
1918	-14.4826026002348 
1919	-14.2203998920053 
1920	 3.38579953756997 
1921	 3.46434235382233 
1922	-6.04503532261652 
1923	-9.77548496987846 
1924	-23.6529755026089 
1925	-27.7339719612521 
1926	-23.1394255241778 
1927	-15.282028250282 
1928	-7.7888224744117 
1929	-3.95481768414844 
1930	-7.36086408150182 
1931	-20.1981103601342 
1932	-22.9707285817805 
1933	-28.6320124535372 
1934	-29.9354596853556 
1935	-22.5277006339922 
1936	-19.3179014240863 
1937	-18.6972487727233 
1938	-16.9966915578497 
1939	-15.649160441059 
1940	-13.0765798775553 
1941	-5.68512204275568 
1942	 6.37353462271676 
1943	 11.9861256255818 
1944	 21.4740885421569 
1945	 24.3853074019384 
1946	 19.1195866820284 
1947	 16.5481007456295 
1948	 11.4529100829447 
1949	 9.93152236411912 
1950	 11.5976574535086 
1951	 9.52158116396496 
1952	 7.11939650610911 
1953	 3.53782097860344 
1954	 4.03329544343564 
1955	 1.76145153807847 
1956	 3.79279674001585 
1957	 16.8601811006023 
1958	 17.3078822200643 
1959	 7.78355443839619 
1960	 7.4156842996149 
1961	 3.920142104659 
1962	 5.95388867786731 
1963	 20.3873566290905 
1964	 27.3570910609262 
1965	 35.990163124351 
1966	 38.7026353015978 
1967	 35.0805809295149 
1968	 20.6148068586462 
1969	 18.7644000088321 
1970	 17.9353323749804 
1971	 14.2317511367502 
1972	 17.3635195412007 
1973	 15.3542426979221 
1974	 5.00771266368309 
1975	-1.56144078720419 
1976	-7.17864318423771 
1977	-10.974748895581 
1978	-13.7746603093216 
1979	-17.7284840761239 
1980	-20.3029976794926 
1981	-17.6530256175746 
1982	-20.4479791524493 
1983	-31.680289931592 
1984	-29.5770385054145 
1985	-23.3599477517533 
1986	-15.9989888524452 
1987	 6.3214982487795 
1988	 14.9375271720808 
1989	 13.9431066184547 
1990	 17.1644421806467 
1991	 18.2831310236073 
1992	 18.9721570362871 
1993	 12.3824381824306 
1994	 19.5405102349087 
1995	 20.6042175895667 
1996	 17.8762018072274 
1997	 15.7429451642149 
1998	 17.6644397851992 
1999	 13.3720478282245 
2000	-1.08546434897041 
2001	-5.37286388926289 
2002	-7.12476348950497 
2003	-8.20301679085712 
2004	-8.70691308335415 
2005	 1.71809126792484 
2006	 14.0081557476856 
2007	 22.1299068611801 
2008	 21.6891105131769 
2009	 20.822350666675 
2010	 11.248918939359 
2011	-20.880597324882 
2012	-28.9534200529192 
2013	-32.9026823077516 
2014	-29.8559213853239 
2015	-7.08174719802565 
2016	 1.59002524415148 
2017	 10.4132339002731 
2018	 16.17448763001 
2019	 17.8327804886258 
2020	 13.8465050965206 
2021	 5.66840401255631 
2022	-8.51650516361835 
2023	-18.7471338594877 
2024	-24.7938851051167 
2025	-23.0880852610119 
2026	-4.6249992648888 
2027	-0.656153175272851 
2028	-2.21760819731973 
2029	 3.66710114358452 
2030	 13.08004954299 
2031	 14.8452432597166 
2032	 18.7703329775476 
2033	 19.4113517687285 
2034	 5.99876479792928 
2035	-6.69694881033263 
2036	-11.6504353524412 
2037	-19.817739637742 
2038	-25.6895599113586 
2039	-29.0964474894566 
2040	-28.7838385539568 
2041	-24.2140425462126 
2042	-21.0155314994066 
2043	-14.701534541751 
2044	-8.43615568931231 
2045	-1.81067911887748 
2046	 3.12153792208147 
2047	 13.7188584946502 
2048	 15.0952745952909 
2049	 9.9728926363196 
2050	 0.988791093417982 
2051	-2.46135176132674 
2052	-11.3317121869015 
2053	-14.8545677292498 
2054	-8.01005829372997 
2055	-7.8287289978117 
2056	 3.29749844423708 
2057	 13.8502000430526 
2058	 9.8406938540008 
2059	 15.3568405394416 
2060	 24.5942195290227 
2061	 25.1879597671019 
2062	 31.3906629149615 
2063	 30.9346367123573 
2064	 20.4073878858389 
2065	 12.1408615444258 
2066	-2.2830381374103 
2067	-17.1447772395842 
2068	-21.0371123434821 
2069	-22.7165220722466 
2070	-19.8104320199191 
2071	-19.1418907393617 
2072	-15.0427326432465 
2073	-17.2001248106565 
2074	-11.6653883831315 
2075	-1.16819818552731 
2076	 3.78682936814758 
2077	 4.82258863822695 
2078	 9.38239330829427 
2079	 16.223378273183 
2080	 18.8597711607682 
2081	 22.407541464363 
2082	 19.4936163639007 
2083	 11.3240109099523 
2084	 0.284226991161627 
2085	-6.07432956292042 
2086	-14.052938576692 
2087	-20.6903345289559 
2088	-29.7783969666989 
2089	-33.9189884883395 
2090	-30.3084439184372 
2091	-32.3431383729298 
2092	-28.7976953388024 
2093	-27.7753598488604 
2094	-30.0526313238034 
2095	-29.4309352623862 
2096	-28.0747832413787 
2097	-22.0999406634746 
2098	-11.3940942324573 
2099	-4.79939027195891 
2100	 7.20976512897864E-02 
2101	 11.6720487956996 
2102	 11.0380328364687 
2103	 3.44554084575846 
2104	-2.77270762669514 
2105	-15.5855796336023 
2106	-24.1533024850904 
2107	-28.4958519736667 
2108	-23.3097773022345 
2109	-13.3440826537212 
2110	-12.3806459086432 
2111	-6.87057929872825 
2112	-3.9297595056884 
2113	-8.86356718263919 
2114	-6.216817175439 
2115	 2.77515063895101 
2116	 8.76680884526512 
2117	 19.9179935420099 
2118	 24.8951662813304 
2119	 30.1212082996548 
2120	 24.1275202464831 
2121	 11.415310226263 
2122	-0.858915902822495 
2123	-10.5025073478464 
2124	-2.08767392546087 
2125	 10.1670427766157 
2126	 19.1120616119802 
2127	 24.6583241192943 
2128	 17.8430569966923 
2129	 21.2684161103452 
2130	 25.8219132837561 
2131	 30.8582347217285 
2132	 43.3975217536158 
2133	 36.9704517299814 
2134	 23.4974144521919 
2135	 16.6123006431817 
2136	 5.90433801949882 
2137	 1.07451132904583 
2138	 4.70941942562609 
2139	 5.35954667343804 
2140	 9.11102922437249 
2141	 3.26427450755514 
2142	-2.96092049688112 
2143	 3.30037928890732 
2144	 9.02110908759824 
2145	 13.9123974236992 
2146	 26.2650723691279 
2147	 26.0159387591314 
2148	 13.806634172843 
2149	 11.4410804180094 
2150	 4.97628796218874 
2151	-8.11082587048044 
2152	-8.29064515138081 
2153	-13.2394422929809 
2154	-16.8282533584917 
2155	-3.1455552236435 
2156	 9.95892944506341 
2157	 19.2058438089763 
2158	 19.9080788174809 
2159	 8.42668005452321 
2160	-2.42767743704679 
2161	-21.5428171589679 
2162	-29.731197803249 
2163	-38.4819761634615 
2164	-28.6118093532796 
2165	-21.9645468175458 
2166	-19.7969717146088 
2167	-13.6036419516171 
2168	-26.2245869186307 
2169	-29.5600950784608 
2170	-39.1598173753209 
2171	-53.4069581223854 
2172	-49.8980478500966 
2173	-46.3511359279044 
2174	-33.9434248818608 
2175	-23.3565981248331 
2176	-22.0802603171066 
2177	-26.801572287075 
2178	-38.4121535271052 
2179	-44.2356647230732 
2180	-43.6089110026617 
2181	-36.7760643156842 
2182	-30.3388106533436 
2183	-23.6950134626228 
2184	-12.1692270366105 
2185	-8.94180255627283 
2186	-9.14182855800994 
2187	-7.43200496055169 
2188	-8.12583658983398 
2189	-15.2470129344856 
2190	-17.3552809978728 
2191	-25.112023592362 
2192	-31.7814590585078 
2193	-30.5687448912453 
2194	-31.2471249465398 
2195	-34.1183345798524 
2196	-37.6564246178574 
2197	-39.523051583993 
2198	-31.6319030020715 
2199	-21.9861483047189 
2200	-20.0756628976782 
2201	-15.9317078915285 
2202	-11.060849958079 
2203	-4.64664593165309 
2204	 15.3365601003946 
2205	 32.2792096793556 
2206	 32.3888771132112 
2207	 23.2588591414759 
2208	 9.80207781436808 
2209	-5.76625631240951 
2210	-13.7534583350829 
2211	-12.6488894314653 
2212	-13.9785433790179 
2213	-14.850762368997 
2214	-12.4809259370439 
2215	-10.6509209914219 
2216	-2.94890291939682 
2217	 18.9920503410137 
2218	 25.1414933220707 
2219	 27.4956246745667 
2220	 24.4989207472721 
2221	 11.5154663312611 
2222	 0.67885077142634 
2223	 6.53905620487658 
2224	 13.0741243659366 
2225	 19.8820501831888 
2226	 24.6281288592611 
2227	 13.9663965460665 
2228	 1.39547663200071 
2229	-2.72157572665922 
2230	-6.69460576484827 
2231	-6.73920431216469 
2232	 2.18659733482367 
2233	 6.0088498791086 
2234	 3.84654455856908 
2235	 1.34577435566534 
2236	-15.302623476884 
2237	-33.1674617562313 
2238	-37.9103351490996 
2239	-41.2448544042166 
2240	-35.6190412329675 
2241	-24.5939806321427 
2242	-20.6465938249955 
2243	-17.5381117900466 
2244	-15.7486749082284 
2245	-18.7158962504125 
2246	-27.8920839557419 
2247	-30.0108994472879 
2248	-32.9586093277139 
2249	-28.1024748488285 
2250	-13.0389112833678 
2251	-4.5499425989993 
2252	 1.22990756571743 
2253	 6.32014159694097 
2254	 10.1563251774076 
2255	 12.0513408663312 
2256	 12.7763895732888 
2257	 16.1242537341859 
2258	 21.2872549943455 
2259	 24.5022645022563 
2260	 19.9367786372803 
2261	 19.3268850518295 
2262	 7.72596133427125 
2263	-0.998545556055535 
2264	 0.742531532518815 
2265	 5.06115177567186E-02 
2266	 2.33311609065158 
2267	 7.40160447911557 
2268	 10.7984755256092 
2269	 10.6213229039978 
2270	 10.7874143066265 
2271	-2.45834624726232 
2272	-11.0073522724669 
2273	-11.820365877706 
2274	-18.4775703458811 
2275	-11.9845394103606 
2276	-9.8521750609521 
2277	-10.8286081006409 
2278	-7.28147832641555 
2279	-7.38938796523837 
2280	-14.4250289204054 
2281	-25.4009553700772 
2282	-33.2596182817022 
2283	-44.3562986825135 
2284	-46.817942696289 
2285	-39.1847399718322 
2286	-32.6323932198515 
2287	-18.9422693765416 
2288	-14.3974686979714 
2289	-14.3020822276265 
2290	-12.2513051500518 
2291	-15.7502113755515 
2292	-10.7279943091936 
2293	 11.424432081661 
2294	 13.3749575860589 
2295	 2.83068328510467 
2296	-1.46264730084159 
2297	-18.5605503023104 
2298	-26.6767833447139 
2299	-21.4974395231146 
2300	-23.3553460560582 
2301	-31.4465455784904 
2302	-33.576148121977 
2303	-34.3534362954834 
2304	-32.1468378494974 
2305	-21.9788767703242 
2306	-18.6938379885567 
2307	-16.9625974551084 
2308	-16.2030989095166 
2309	-22.9252556975981 
2310	-17.2271351248821 
2311	-14.1811302903943 
2312	-14.7049518243069 
2313	-15.3763809632249 
2314	-21.4166650934815 
2315	-22.3661566653406 
2316	-15.3702565889185 
2317	-4.16452120515965 
2318	 3.96810059082506 
2319	 17.1088565225429 
2320	 21.8179146564176 
2321	 17.491518872979 
2322	 20.4462556829513 
2323	 11.9969060514175 
2324	-0.952438646006159 
2325	-11.9428827064154 
2326	-24.7404518675518 
2327	-24.8771653305761 
2328	-21.2322838797725 
2329	-13.7524730826227 
2330	-2.96478003103607 
2331	-2.40846189753182 
2332	-1.40979411123712 
2333	 5.48757805863286 
2334	 11.2022588870998 
2335	 15.4529418204392 
2336	 16.1369422967084 
2337	 7.89534218790345 
2338	 0.199639245235177 
2339	 1.25538560032013 
2340	 2.56703819100633 
2341	-0.852937518706283 
2342	 3.84758015422257 
2343	 1.22961551843618 
2344	-11.7323574982533 
2345	-4.98018435555231 
2346	-12.1517111931242 
2347	-20.1377223267306 
2348	-11.5840477405239 
2349	-15.7170912449809 
2350	-17.6477881148236 
2351	-21.7582593585911 
2352	-29.6381688387692 
2353	-34.0835454836104 
2354	-26.7046667148145 
2355	-12.438939869695 
2356	 2.67086482246295 
2357	 21.6201784584195 
2358	 26.9988785586757 
2359	 19.0630257799481 
2360	 7.93780337662839 
2361	-10.0503320832717 
2362	-25.9474874889325 
2363	-23.6060355272241 
2364	-22.5248956150531 
2365	-19.3387536091318 
2366	-9.22785995509914 
2367	-7.70974315757533 
2368	-4.18225506908395 
2369	-0.327034221216105 
2370	 1.64503445518313 
2371	-1.53820250848216 
2372	-4.74684629500342 
2373	-4.64493265977693 
2374	-14.1364191419957 
2375	-17.5998503528448 
2376	-16.7902749993784 
2377	-21.2516810861263 
2378	-14.0072800910251 
2379	-0.431689005782517 
2380	 10.8349659484683 
2381	 15.462581605799 
2382	 13.5454929188062 
2383	 3.30553593556255 
2384	-11.7549963497309 
2385	-7.81804706566179 
2386	-2.16375740063613 
2387	-8.26130849563301 
2388	-7.13285970663131 
2389	-11.3450021018711 
2390	-23.7451136747506 
2391	-18.5766775217799 
2392	-12.3948754691934 
2393	-14.8306292821587 
2394	-13.0200682961051 
2395	-20.431005383499 
2396	-24.6497520686114 
2397	-26.8809501006271 
2398	-30.5428458679881 
2399	-17.4753043622343 
2400	-7.38945735365285 
2401	 2.09653836165241 
2402	 14.5465686769658 
2403	 14.2374773861749 
2404	 4.34336280857196 
2405	-9.66364766310631 
2406	-17.8802625659926 
2407	-24.0456257519418 
2408	-21.7836928838183 
2409	-14.687489159591 
2410	-9.71369178590738 
2411	 2.68713529898069 
2412	 4.90994899030723 
2413	 2.96562012576352 
2414	-4.86558434436658 
2415	-24.8379655341451 
2416	-35.4688020363926 
2417	-39.3203012179802 
2418	-32.5725383726088 
2419	-23.9246014328918 
2420	-19.5791981558751 
2421	-12.7226087400281 
2422	-17.5503116896928 
2423	-23.5538332343084 
2424	-18.0542329426978 
2425	-16.5222169677457 
2426	-10.2039560476234 
2427	-0.257765169250199 
2428	-4.80698395496431 
2429	-10.0081008065257 
2430	-17.5752693866633 
2431	-25.9530448781897 
2432	-26.6161915516791 
2433	-23.8730601919117 
2434	-19.5340743350146 
2435	-9.97983003142686 
2436	-1.94880468649703 
2437	-0.374923701289719 
2438	 0.434954164104528 
2439	-8.82421929675236 
2440	-14.0117369026591 
2441	-19.0705826134316 
2442	-24.6163244583359 
2443	-18.1022555809815 
2444	-21.2675250016883 
2445	-19.1008125022444 
2446	-10.7543556980917 
2447	-14.7152195528359 
2448	-11.1522016278976 
2449	-5.18455412811282 
2450	-4.20639698142643 
2451	 5.92527106973651 
2452	 13.0739308169609 
2453	 15.1481395517841 
2454	 15.9387045370639 
2455	 6.06810692772638 
2456	 0.529152652033817 
2457	 1.80955914588998 
2458	-0.47195614594594 
2459	-0.886861330929877 
2460	 5.74207844471951 
2461	 3.98961717088367 
2462	-4.23501278086408 
2463	 1.58305261181468 
2464	-2.35507697936041 
2465	-8.33973913550261 
2466	-10.3273794961185 
2467	-16.8443938793878 
2468	-9.24642544514978 
2469	-2.5898656215749 
2470	 1.838985717537 
2471	-2.8347168764306 
2472	-11.7267604260691 
2473	-21.6130590538134 
2474	-29.7842457759308 
2475	-29.5602824192263 
2476	-31.4107623462016 
2477	-40.2106291942004 
2478	-41.4412350489924 
2479	-42.118666767331 
2480	-43.0078676616645 
2481	-40.3418132389972 
2482	-42.2509187274901 
2483	-42.5929289908492 
2484	-40.9633371837784 
2485	-36.8987824553524 
2486	-27.8525848817075 
2487	-23.4665029511548 
2488	-18.1263567211049 
2489	-0.439149241979415 
2490	 8.66625419905474 
2491	 9.23076673218328 
2492	 11.0506333326913 
2493	-1.65529080295417 
2494	-9.3966599345475 
2495	-7.08254272724618 
2496	-4.91341086016801 
2497	 3.1237444401814 
2498	 9.45088486755344 
2499	 17.2328376267044 
2500	 16.2269402280254 
