Wavelength	3mm_BlackPLA00000.asd
350	 1.90354209369343 
351	 1.54246204777777 
352	 1.33912006094915 
353	 0.847836947606318 
354	 0.156747716599487 
355	 0.293092829615679 
356	 1.41748896803171 
357	 0.611880757332115 
358	 0.362096939283055 
359	 0.564022149670538 
360	-0.929363791940351 
361	-5.93538938553986E-02 
362	 1.32403387757319 
363	 0.84148327534642 
364	-0.129371327862462 
365	 0.829891382656643 
366	 2.70045394393343 
367	-1.81729326519754E-02 
368	-1.20335690174371 
369	-0.414682089128017 
370	 0.657466480155524 
371	-0.466585501040366 
372	-1.04942533429458 
373	 0.114967298597442 
374	 0.518250584013733 
375	 1.0861087545561 
376	 1.5520986489441 
377	 1.17802613829149 
378	-0.142244953408861 
379	-0.831131670156004 
380	-0.179138102432329 
381	-0.825244369905459 
382	-0.32799961692771 
383	 1.01878357118174 
384	 0.606598232761306 
385	 0.359163256421895 
386	 0.675892658653833 
387	 1.31201476919384 
388	 0.854117435247352 
389	-0.101735648547234 
390	-0.768548178966994 
391	-8.44932009280851E-02 
392	 0.35298162218488 
393	 0.347082857527325 
394	 0.347796734829333 
395	 1.43965070700099 
396	 0.904715312475753 
397	-1.88587495566602 
398	-1.00500834625874 
399	 4.35456011659448E-02 
400	 0.692927968232243 
401	 2.39220215799055 
402	 2.3833923415404 
403	 0.880006483693762 
404	-0.834264585857996 
405	-0.297840276865572 
406	 0.136853641686802 
407	-0.544267592189337 
408	-1.22286195165562 
409	-0.554298582726707 
410	 0.629519427813999 
411	 0.634298008024539 
412	 0.481927206942153 
413	 0.465427979490561 
414	 0.623422144031361 
415	 0.494569092986956 
416	 0.839986252191393 
417	 1.31982996500949 
418	 0.620260694922359 
419	 0.870087167042642 
420	 0.851437280016023 
421	-0.676666459248378 
422	 0.490278367834596 
423	 0.902897003089035 
424	-0.395047213978926 
425	 1.64000413864784 
426	 1.19687108082447 
427	-0.828172867158551 
428	-0.231079002575689 
429	-0.245837832614436 
430	-0.74738941740748 
431	-0.944369426587782 
432	 0.357813748766402 
433	 0.545460888960777 
434	-0.644137870283036 
435	-0.376213788218002 
436	-0.437131872466118 
437	-0.832717782954221 
438	-0.977452141680246 
439	-0.88229775829619 
440	-0.152822983913788 
441	 1.08298501467689 
442	 1.37830537463341 
443	-4.26147162096747E-02 
444	-1.75718403645281 
445	-0.222498405997183 
446	 1.45148895953396 
447	 1.47011316586957 
448	-0.616056775456091 
449	 0.764192422735269 
450	 2.19301671907205 
451	 1.51932133656227 
452	 0.521351165567054 
453	 0.636037337219741 
454	 1.64838629922086 
455	 2.06733755128974 
456	 0.695539170907993 
457	-0.992884546892574 
458	-1.27708426238065 
459	-0.857212450031938 
460	-0.219844024623625 
461	 0.281078001700234 
462	 0.485920946194887 
463	 0.261389052845702 
464	-0.117151581663897 
465	-0.158432674810843 
466	-0.365601921469705 
467	-1.25101194398131 
468	-2.64639804667641 
469	-1.54423985512803 
470	-0.948179238092954 
471	-1.45851499332759 
472	 0.493523917407417 
473	 0.056364525749184 
474	-1.50955272784037 
475	-0.405840352700525 
476	-0.290240413941771 
477	-0.378743180311105 
478	 5.14139678903643E-02 
479	-1.63569555550356 
480	-1.73408889221668 
481	 0.385141323626016 
482	 1.16379376256676 
483	 0.598872427884317 
484	-0.114231444769125 
485	 0.655600988141894 
486	-0.105309962514056 
487	-0.884953154680853 
488	-0.41908711444049 
489	-0.849829675924596 
490	-0.818287792356458 
491	-0.113045391997104 
492	-0.028765975250328 
493	-1.68715051695889E-02 
494	-0.305353179814341 
495	-1.181091404359 
496	-0.275680519175638 
497	 0.271971930574713 
498	-0.91775471538536 
499	-0.192193047181133 
500	-0.25402249461796 
501	-1.57707254338774 
502	-1.77157214881745 
503	-1.62246397634548 
504	-1.34758590247462 
505	-1.03459612830952 
506	-0.687986619133974 
507	-0.589759061140856 
508	-0.798425657859797 
509	-0.390868253023511 
510	-0.733413445369099 
511	-1.82313106144553 
512	-1.82320191118504 
513	-1.09937744186558 
514	-0.540374946473074 
515	-1.26467487022493 
516	-2.6280057761784 
517	-2.6883965172263 
518	-0.736174911893248 
519	-1.21125793810734 
520	-1.27591071103416 
521	-9.14736492370513E-02 
522	 0.301907110367895 
523	-0.294245623604989 
524	-1.26306517709391 
525	-1.51430917098223 
526	-1.55106881574992 
527	-1.66575949465614 
528	-1.89638510429698 
529	-1.16068077378407 
530	-1.63977198276551 
531	-3.20945953451865 
532	-1.59535112000908 
533	-1.40906916571673 
534	-2.15477397779439 
535	-0.961819746995318 
536	-1.19892472705573 
537	-1.85903744159256 
538	-1.58534957882167 
539	-1.65049451594223 
540	-2.03611528847826 
541	-2.52635751896418 
542	-2.66422993690139 
543	-2.3894778169911 
544	-1.85954588594499 
545	-1.40829164904635 
546	-0.829684612776083 
547	-0.523868395091096 
548	-0.699390455351063 
549	 0.472496384329422 
550	-0.108342478967072 
551	-2.77556110407736 
552	-1.00409842534014 
553	-1.09123269344869 
554	-3.29193682347835 
555	-3.59039416336539 
556	-1.71871162945393 
557	-4.20010476599321E-02 
558	-1.0249895049506 
559	-1.41943084138582 
560	-1.20265905417606 
561	-0.691248355505268 
562	-0.20696597384084 
563	 0.434494272642239 
564	 0.521458433870806 
565	-1.63156937152077 
566	-1.8359413829372 
567	-1.23451313268635 
568	-2.38660310103058 
569	-2.87235021939109 
570	-1.73390846427278 
571	 0.416541751781759 
572	-1.32625648348502 
573	-2.56894283020669 
574	-2.08135865026645 
575	-2.27874128495792 
576	-2.00256043544734 
577	-1.6431015844998 
578	-1.99117934158699 
579	-1.09481573950442 
580	-0.841292636713018 
581	-2.46691047107178 
582	-2.66145630502166 
583	-1.72064535109771 
584	-0.480815269631895 
585	-0.618786159353462 
586	-1.11115310757505 
587	-1.64366744840565 
588	-2.13773699698754 
589	-2.04169155846437 
590	-2.12835329568778 
591	-2.80022088983716 
592	-1.12783549912897 
593	 0.101877798786119 
594	-0.679042680628777 
595	-2.79695125618818 
596	-2.81289704697249 
597	-0.987582455099435 
598	-0.246304602720178 
599	-0.878183417196453 
600	-1.24877563275512 
601	 6.06728482764546E-03 
602	-1.7389799293718 
603	-3.2579764174181 
604	-2.41096304256677 
605	-0.815573693444184 
606	-0.139350984436978 
607	-0.750179621287128 
608	-1.80827939273212 
609	-2.75170218716227 
610	-3.06730518265422 
611	-2.44949640848116 
612	-1.55554914556845 
613	-1.50722128583395 
614	-2.35637593092576 
615	-0.557205924450147 
616	-0.186042478982542 
617	-1.83735991353897 
618	-1.89285500591435 
619	-1.66283259329827 
620	-1.01009785849953 
621	 0.405026210222038 
622	-0.694098300969392 
623	-1.90261996686393 
624	-1.07735868164904 
625	-1.0567182386214 
626	-1.09474551233612 
627	-1.03150550752098 
628	-1.8901681455951 
629	-2.73789278481524 
630	-2.95558531266001 
631	-2.07148530623289 
632	-0.940695483508352 
633	-0.540072738575331 
634	-1.40601391790276 
635	-1.96033894671211 
636	-2.30031779269975 
637	-2.44815322628722 
638	-1.95345096292917 
639	-1.50479525058526 
640	-1.2593783563065 
641	-1.01641950628258 
642	-1.70757734776655 
643	-2.77621305688361 
644	-3.25511899904002 
645	-2.72794096706468 
646	-1.85932445412014 
647	-1.34656219630173 
648	-1.88766074913563 
649	-1.74704117415231 
650	-1.16593728302858 
651	-2.41180240920418 
652	-2.18953047273799 
653	-1.37607622543777 
654	-2.02290556269693 
655	-2.27286445295416 
656	-1.64933415486291 
657	-0.644959359932241 
658	-2.4729373895003 
659	-3.25322345238631 
660	-2.06499479617258 
661	-1.6127786799649 
662	-2.62685819943441 
663	-3.35736653000012 
664	-1.21447288831814 
665	-1.70164443085314 
666	-2.59872908987281 
667	-1.54498387470862 
668	-1.15179129889761 
669	-1.29128513221827 
670	-1.64352554249712 
671	-1.59163492531088 
672	-2.32844217508759 
673	-2.93903704918895 
674	-1.45585669173711 
675	-0.436601753127186 
676	-0.651836014457625 
677	-2.0356130684471 
678	-2.79013087204475 
679	-2.99646885397708 
680	-2.76804401373817 
681	-1.94278968569116 
682	-1.10828778150784 
683	-0.754683713678878 
684	-1.31695012139857 
685	-2.04180030473228 
686	-1.99857331229035 
687	-0.827829820458433 
688	-1.85305767455603 
689	-2.35759628089065 
690	-1.19759115471267 
691	-1.94017492265516 
692	-2.72709465589531 
693	-2.71478792837699 
694	-1.70000924332236 
695	-0.785436101105408 
696	-0.28402820596704 
697	-0.273060421421514 
698	-1.24784800021566 
699	-1.85882750575959 
700	-1.55811270450657 
701	-2.64693034789846 
702	-1.54442017251572 
703	 0.651151829500426 
704	-2.02920202505179 
705	-3.10381490568701 
706	-2.38873713413343 
707	-1.74421364965963 
708	-0.690715788351367 
709	-0.898469938530109 
710	-2.81722838395799 
711	-2.73089859413361 
712	-2.24303021188656 
713	-2.36892721290577 
714	-3.6897021457879 
715	-3.71287076739599 
716	-3.0023846779748 
717	-3.14192202210603 
718	-2.37844118833873 
719	-1.71525570932946 
720	-1.91735280614481 
721	-1.85546430048163 
722	-0.96523822738289 
723	 1.71075930803709E-02 
724	-1.4610145396246 
725	-3.05989657453319 
726	-3.70341936415859 
727	-2.93501268021337 
728	-2.32232499609605 
729	-1.76917256665814 
730	-1.11149151075429 
731	-0.931032109241192 
732	-1.13562222647669 
733	-1.56875993656593 
734	-2.00284422246388 
735	-2.36613263620778 
736	-2.26771319890498 
737	-1.31274557502381 
738	-0.608783010490544 
739	-0.591766658724168 
740	-1.37656105816433 
741	-2.70779410524331 
742	-3.30724990010119 
743	-2.53720477595396 
744	-0.304186900850458 
745	-0.272275899003141 
746	-1.79120394809726 
747	-2.3030578409432 
748	-2.35085638103372 
749	-2.43151699708702 
750	-2.75226147327686 
751	-2.43121666646476 
752	-1.48191743983157 
753	-0.850897802642659 
754	-3.00670923308339 
755	-3.44348137822834 
756	-2.46322767233147 
757	-2.20720104309679 
758	-1.29676268812444 
759	 0.143240581310454 
760	 1.32787785778906 
761	-0.167108810011966 
762	-1.56509621134537 
763	-1.80499101109647 
764	-1.75620590156698 
765	-2.43041979080009 
766	-2.59878866143663 
767	-0.653763727078605 
768	-0.740997856845692 
769	-1.82350658274761 
770	-2.42524975914645 
771	-1.76728802277277 
772	-1.83222533540964 
773	-2.49946490092562 
774	-1.4168446645565 
775	-1.6004091939307 
776	-2.79910667291626 
777	-3.62110270119226 
778	-3.05763455294647 
779	-2.15661017920641 
780	-1.86315277894992 
781	-2.50436244775318 
782	-2.14730358074073 
783	-1.06348233639686 
784	-1.38818511197688 
785	-1.90816615944545 
786	-2.35293238427074 
787	-2.58217843706751 
788	-1.78189015185967 
789	-1.52040606752672 
790	-2.17494320271999 
791	-1.15482452141271 
792	-1.31220590326167 
793	-2.19943930764287 
794	-1.41234677676294 
795	-1.01060153899231 
796	-1.39160046918905 
797	-2.18670263428417 
798	-1.26301892212099 
799	-0.673084855345308 
800	-1.03239201510963 
801	-0.411538167544148 
802	-0.461749334607983 
803	-1.19070975567751 
804	-1.89393437906529 
805	-2.61059472143399 
806	-2.53978595724438 
807	-1.49515994075329 
808	-1.46936374541619 
809	-2.01579533193667 
810	-2.5340628322739 
811	-2.20412084435491 
812	-2.08607835876674 
813	-2.04779914845145 
814	-1.61895347569953 
815	-0.659485805972709 
816	-0.899443295928194 
817	-2.60263514484218 
818	-2.36702061374532 
819	-2.15974359465274 
820	-2.15453389075907 
821	-1.48023584813115 
822	-1.31205667443847 
823	-1.68414553337358 
824	-2.11296919982253 
825	-0.869058330651857 
826	-1.21502715698667 
827	-3.00756063652368 
828	-0.636301048615503 
829	-0.710063578187396 
830	-2.16866868654896 
831	-1.41218607418029 
832	-2.47524789353888 
833	-2.90364050714628 
834	-1.28496050544866 
835	-0.83678435936052 
836	-2.15600465370833 
837	-3.31077010429515 
838	-0.312629582905722 
839	-0.662300919176246 
840	-2.24410577210284 
841	-1.66555122901249 
842	-1.87133826294878 
843	-1.87139380926365 
844	-1.47032047910631 
845	-2.02334516866686 
846	-2.01509343398024 
847	-1.14682477173829 
848	 9.99912029368735E-02 
849	-1.16320169469128 
850	-1.83015089060091 
851	-0.41597176955184 
852	-1.604238597112 
853	-2.71304471699841 
854	-3.04166593380816 
855	-3.22531964211028 
856	-2.95835008962294 
857	-1.82396180026241 
858	-6.46635773591768E-02 
859	-0.606213239135879 
860	-1.96691200687375 
861	-2.90052294799209 
862	-2.54282717660573 
863	-2.24953753260157 
864	-1.66549769391134 
865	-0.188977274658572 
866	 0.510138886513998 
867	-0.505085000931347 
868	-2.74466839444266 
869	-3.04393231242305 
870	-2.86357071307199 
871	-2.55286574238232 
872	-2.02645325376562 
873	-1.23725187773871 
874	-0.523034076367502 
875	-0.341147329845064 
876	-1.53513379541765 
877	-2.15270955952542 
878	-2.01488176169635 
879	-2.36292978449045 
880	-2.43045963484202 
881	-2.23898735816477 
882	-2.02439299053985 
883	-2.19711757824389 
884	-2.3352351693686 
885	-1.9601449286561 
886	-0.475784629995462 
887	-1.41172764559795 
888	-3.13055887679884 
889	-2.93618542396698 
890	-2.20331066221949 
891	-2.09882251507714 
892	-2.45435622102019 
893	-0.825984920629748 
894	-1.10707163698782 
895	-2.12216357985591 
896	-1.28144677640565 
897	-1.81269426440561 
898	-2.32254944707029 
899	-1.94777007807017 
900	-1.80494300895561 
901	-1.10207149402153 
902	-0.563043537180359 
903	-1.37036573183126 
904	-1.50401756558846 
905	-1.226607148765 
906	-1.13820557987112 
907	-1.9601532864137 
908	-2.67084378212169 
909	-2.70525415164971 
910	-1.9433590626472 
911	-2.89210016852473 
912	-2.33603906796109 
913	 0.886047175747239 
914	-0.194545766644146 
915	-1.21421932803277 
916	-1.33566573941484 
917	-1.92571860579626 
918	-1.70202638057939 
919	-0.843048525873379 
920	-0.16125033371283 
921	-1.72494605033686 
922	-2.60016177708895 
923	-2.30993646857267 
924	-2.18169010917236 
925	-1.76341098245279 
926	-1.98685520659715 
927	-2.9198032467839 
928	-1.07044631489131 
929	-0.639492913773972 
930	-1.77050341389979 
931	-1.62145440091841 
932	-1.34591049765411 
933	-1.05629426811763 
934	-0.663476353028392 
935	 0.207013082625483 
936	-5.35093533513142E-02 
937	-0.703524949198278 
938	 0.394480852696796 
939	-1.81093885723182 
940	-2.68767726737058 
941	 0.227429629926638 
942	-1.66097445723716 
943	-2.69007693774377 
944	-1.94370500566088 
945	-1.53710279256317 
946	-2.20384121727453 
947	-2.51097898041966 
948	-1.82065060801613 
949	-2.57451554711451 
950	-1.96954591573735 
951	-1.04501742522778 
952	-2.41428335844036 
953	-1.83485065059404 
954	-1.26877852478784 
955	-1.66187728087373 
956	 0.28374183510112 
957	-0.889350900507778 
958	-2.61806089460993 
959	-9.20303859146692E-02 
960	-0.186672371144669 
961	-1.08304985617441 
962	-1.24448850788834 
963	-0.942775450042872 
964	-0.394627665539269 
965	 0.190316321381752 
966	 2.31117192092652 
967	 1.35314065320439 
968	 1.31097082966452 
969	 1.14208185008854 
970	 1.27132311704167 
971	 0.6666168084802 
972	-0.179252275692856 
973	-0.874227638842294 
974	-2.52830505932975 
975	-3.39451379913828 
976	-3.66069687834465 
977	-3.74422051607779 
978	-4.67857548834239 
979	-3.33648342513945 
980	-0.615560597824118 
981	 2.40188275169782 
982	 3.00382093705259 
983	 3.57791030619905 
984	 3.64058390536107 
985	-0.957291504371645 
986	-1.1016786138238 
987	 2.90002539792635 
988	 2.98218231842404 
989	 2.66111982429921 
990	 2.43844582093387 
991	 0.71693760113255 
992	-0.964215284386565 
993	-3.48116409320772 
994	-3.80798671591838 
995	-2.60323727681382 
996	-5.26101389112512 
997	-4.6849236832768 
998	-1.62956808485099 
999	 1.93772004515165 
1000	 5.52436827949544 
1001	 3.732214629784 
1002	 1.75534107120809 
1003	 1.71912931246549 
1004	 1.96342994189971 
1005	 1.03751392702201 
1006	 1.74730181151059 
1007	 2.25754334050333 
1008	 1.90510856545234 
1009	-1.82514813007033 
1010	-2.95248868623203 
1011	 2.47894486117411 
1012	 1.75204974223227 
1013	-0.577814731704661 
1014	 1.16513761164525 
1015	-1.40299491760929 
1016	-5.52733561928486 
1017	-5.13551822295567 
1018	-4.06952992750835 
1019	-3.94375720042472 
1020	-1.73599687927597 
1021	-0.246112899193052 
1022	-1.69996563533729 
1023	-2.36388312736268 
1024	-3.07112306968186 
1025	-4.31597252738607 
1026	-5.58067951322133 
1027	-4.34727735929149 
1028	-4.70510558400944 
1029	-5.75867084017476 
1030	-4.58938712045352 
1031	-3.76906649743871 
1032	-3.70739443409718 
1033	-2.48661497195162 
1034	-2.83538375172035 
1035	-4.26222317217448 
1036	-1.98895665645265 
1037	 2.09570544311635 
1038	 4.25021888386288 
1039	 3.71338439470679 
1040	 3.09056171493981 
1041	-1.66674356934695 
1042	-2.86360268574384 
1043	-3.8785657664975 
1044	-0.217812376429582 
1045	 4.34892539542559 
1046	 5.15046210897206 
1047	 6.05614523463218 
1048	 5.42277695359839 
1049	 2.17908702780083 
1050	 2.06740016533488 
1051	 2.15008984640543 
1052	-1.02249604667755 
1053	-0.264476732153427 
1054	 0.265850123418997 
1055	-1.1613005147692 
1056	 1.3215190497563 
1057	 0.239424624145006 
1058	-6.52160101596622 
1059	-7.72233211858778 
1060	-6.46346334189918 
1061	-5.64184913123315 
1062	-2.92823715289626 
1063	 0.85608193137673 
1064	 2.81943998161091 
1065	 0.208612437662733 
1066	-1.68567504184542 
1067	-3.67413742929374 
1068	-4.46612451730365 
1069	-3.24200762969609 
1070	-0.328581141251274 
1071	 6.78694968999335 
1072	 9.86245961334551 
1073	 9.38733783950871 
1074	 9.43828847807143 
1075	 6.14841616032834 
1076	 4.02317514170532 
1077	 3.06983764178798 
1078	 1.63823182245089 
1079	-1.03501681989307 
1080	-1.82088088503014 
1081	-2.46352809951689 
1082	-2.22322795491346 
1083	 1.0849810614656 
1084	 0.573924549503003 
1085	-1.78042847860513 
1086	-0.146822774058113 
1087	 0.572921960345433 
1088	 0.373871795454809 
1089	 1.74820583043054 
1090	 3.74463540146802 
1091	 4.69252358717091 
1092	 5.10383964454028 
1093	 4.06475254966845 
1094	 0.929033745942769 
1095	 0.554478296793652 
1096	-0.531126936292705 
1097	 0.257532965243608 
1098	 7.01736377578102 
1099	 7.37719493237661 
1100	 3.6653852010921 
1101	 1.77976588012928 
1102	-3.58288224745281 
1103	-6.34068301343191 
1104	-7.01188557562022 
1105	-7.46529997654519 
1106	-5.9823646053406 
1107	-1.34165556650248 
1108	 1.35572209143566 
1109	 2.74052005205055 
1110	 2.12586659978218 
1111	-3.31845011496134 
1112	-4.21770023166855 
1113	-3.77948571102196 
1114	-4.10188535163872 
1115	-2.80044397358759 
1116	-2.78581932291265 
1117	-5.41887576019019 
1118	-4.84203132743152 
1119	-1.07169707978923 
1120	-0.279494686459736 
1121	 1.48592740070158E-02 
1122	 0.798504856003034 
1123	-2.03502784899267E-02 
1124	-0.639958946975288 
1125	-0.421271914066997 
1126	 0.737332285706445 
1127	-0.628589450264939 
1128	-4.68424774889769 
1129	-4.9273331534172 
1130	-4.11696174975091 
1131	-4.39377304104599 
1132	-3.14956438062359 
1133	-2.90745284794759 
1134	-4.20306659714141 
1135	-5.04714289891207 
1136	-6.05957376043116 
1137	-5.40382732909403 
1138	-4.14180481734927 
1139	-3.43973034067018 
1140	-0.936783876792151 
1141	 0.376886191386648 
1142	 0.965668597217049 
1143	 0.350372588222744 
1144	-1.36400216654337 
1145	-2.43764034400636 
1146	-6.26993687764316 
1147	-7.38722202140563 
1148	-6.98125838223359 
1149	-4.33036823625971 
1150	-2.59434660476247 
1151	 1.67908244069113 
1152	 1.49414265567259 
1153	-1.93836010209048 
1154	-1.72473951130346 
1155	-2.10089384067375 
1156	-1.88447017645236 
1157	 0.65653050227629 
1158	 2.63929509777371 
1159	 3.86996013155321 
1160	 5.25183632400722 
1161	 9.990373006177 
1162	 10.0264634418089 
1163	 5.24243775294274 
1164	 3.47565869736497 
1165	 0.86208276264507 
1166	-1.31276428483489 
1167	-0.689323711148282 
1168	-3.00557986888663 
1169	-1.96231569605798 
1170	-1.53467982925573 
1171	-1.30943787759947 
1172	 0.74159289187747 
1173	 1.84750636478379 
1174	 1.67739744697496 
1175	 1.61910577637405 
1176	 2.62055454564711 
1177	 2.36037424034774 
1178	-0.428521076008619 
1179	-0.844835316668214 
1180	 1.02534844342102 
1181	 0.245388359925376 
1182	-1.07817651996863 
1183	-2.6952167946809 
1184	-7.47494955104086 
1185	-9.14670353938783 
1186	-9.90924135264058 
1187	-9.211164353472 
1188	-3.70859898052297 
1189	-2.00771448672401 
1190	-1.48596095602224 
1191	-1.06894597052727 
1192	-2.85111474270358 
1193	-5.90494914287654 
1194	-6.39970457331156 
1195	-7.45469352923978 
1196	-7.70255036945639 
1197	-7.39458181231282 
1198	-7.29862092574347 
1199	-7.65894807031794 
1200	-5.64486453576842 
1201	-2.53136922934381 
1202	-0.615708405667589 
1203	 4.0441774742307 
1204	 5.81027953082125 
1205	 5.20693365930037 
1206	 5.28290673021919 
1207	 4.29764495049797 
1208	 3.32908395022456 
1209	 0.966031029019402 
1210	 0.691283638543969 
1211	 2.30305747450483 
1212	 2.37202870383211 
1213	 3.97709317727853 
1214	 5.37462663574799 
1215	 1.9962765643132 
1216	 1.49253058140426 
1217	 1.41538921387998 
1218	 6.83387282512988E-02 
1219	-0.670161785493781 
1220	-1.28081026165154 
1221	-1.48033864703193 
1222	-2.82930744977871 
1223	-2.89588176136666 
1224	-1.04440477451956 
1225	-0.62757852798689 
1226	-0.86251605589199 
1227	-1.0342448321605 
1228	-1.7269820691792 
1229	-1.11627339365358 
1230	-5.42546713224133E-02 
1231	 1.2750180360279 
1232	 4.12181704103297 
1233	 5.23820220995539 
1234	 5.99887873850621 
1235	 5.85086244598123 
1236	 4.48782416159197 
1237	 2.94494194631111 
1238	 2.45005408677366 
1239	 1.99925936967885 
1240	 2.32505945455421 
1241	 4.76111750288518 
1242	 5.59349997757638 
1243	 4.18282649326699 
1244	 1.31295279597614 
1245	 0.701790141871959 
1246	 0.836058399916038 
1247	-0.284980972585521 
1248	 0.407698804202044 
1249	-1.22533521419349 
1250	-1.34099789549564 
1251	-0.382920205409195 
1252	-1.29380559958848 
1253	-1.57685736340412 
1254	-3.10556190808094 
1255	-9.70796943439318 
1256	-9.95699833320257 
1257	-6.77472844487044 
1258	-5.50600426552329 
1259	-0.751811148926656 
1260	 1.95857966235208 
1261	 2.25720465970512 
1262	 4.27856748888123 
1263	 5.95390036166252 
1264	 2.50350816468102 
1265	-1.36297321820469 
1266	-5.86571816230967 
1267	-8.08102628399604 
1268	-7.56797315112107 
1269	-7.99884109767907 
1270	-6.09156999496669 
1271	-4.88820401002892 
1272	-3.33189266870665 
1273	 1.3636714518472 
1274	 3.54720606336937 
1275	 2.51894751752795 
1276	-0.657280230105858 
1277	-3.9705834196915 
1278	-5.4809158358876 
1279	-6.64457788224466 
1280	-6.17717910301363 
1281	-5.51398714413017 
1282	-4.22845733065721 
1283	-3.03016622912532 
1284	-0.126357617025529 
1285	 0.524132241862028 
1286	-1.46689119156013 
1287	-1.89099269870942 
1288	-2.88157417179368 
1289	-1.97044574963469 
1290	-1.07403580556068 
1291	-1.36515872947921 
1292	-3.4085646896178 
1293	-5.07856493756135 
1294	-7.02689202029577 
1295	-7.28359378320199 
1296	-4.7888533997132 
1297	-3.64665808721484 
1298	-3.53226721659193 
1299	-2.05599079276308 
1300	-3.20561737737461 
1301	-4.95030320722206 
1302	-2.38718117909646 
1303	-1.08176441228111 
1304	-0.129844181823727 
1305	 0.710551199712776 
1306	 3.00617163317806E-02 
1307	 2.44079836531915 
1308	 4.85676362829274 
1309	 5.17889056174558 
1310	 4.36474628443737 
1311	 0.924744528463131 
1312	-0.13734617686957 
1313	-0.466012896339995 
1314	-3.22702114170031E-02 
1315	 2.10374671735485 
1316	 3.52573818821135 
1317	 4.26448302802893 
1318	 5.34775917532421 
1319	 6.83724239697633 
1320	 9.43989508292406 
1321	 9.94550630621175 
1322	 9.39657194679544 
1323	 6.27034690789989 
1324	 2.4249391647453 
1325	 0.764711553543519 
1326	-3.8834378213558 
1327	-7.41249696851849 
1328	-7.00288817347955 
1329	-8.27219425717223 
1330	-6.99476285105898 
1331	-3.41488195168685 
1332	-3.01796642366179 
1333	-2.24936980677335 
1334	-1.61381268424321 
1335	-1.85281396656224 
1336	-0.690123248988652 
1337	-1.04735398392251 
1338	-1.85400007757141 
1339	-1.33569083988893 
1340	-1.49396131119322 
1341	-1.66515740716507 
1342	-1.76533390641466 
1343	-3.33620435788322 
1344	-6.20395119207754 
1345	-5.77740599613454 
1346	-4.91430117236089 
1347	-5.97585152332951 
1348	-7.5179853753467 
1349	-7.22318506228406 
1350	-8.329759119412 
1351	-8.06725934677437 
1352	-3.97672043649722 
1353	-3.56140792078659 
1354	-4.98322394423411 
1355	-7.44934533084808 
1356	-9.34889071014287 
1357	-7.41491227741173 
1358	-3.45634620682268 
1359	-1.92075053439283 
1360	 0.1501134436109 
1361	 0.116239894680249 
1362	-0.911898247351824 
1363	-0.686723440966992 
1364	-2.35841166816439 
1365	-0.69744974602887 
1366	 0.432315946428504 
1367	 1.55224251389925 
1368	 6.26680954353984 
1369	 2.86701602143151 
1370	-3.1422334602818 
1371	-4.37731314757385 
1372	-6.69273891704647 
1373	-5.97904046624329 
1374	-1.36541001475524 
1375	 0.287361910724879 
1376	-1.00289924247173 
1377	 0.328634166649366 
1378	 2.79997905732833 
1379	 0.748691048629012 
1380	 1.45896745717542E-02 
1381	 1.55109380982042 
1382	 0.672596631290967 
1383	 3.72471489684526 
1384	 10.9089664736247 
1385	 13.7945566596615 
1386	 13.5700202711441 
1387	 15.3482924508327 
1388	 12.4849547327126 
1389	 5.91949094520892 
1390	 2.45800553402835 
1391	-0.656272393626054 
1392	-3.32648415597747 
1393	-4.07853069428379 
1394	-4.61221319935229 
1395	-4.59193292476701 
1396	-4.48056366526124 
1397	-3.61830936335365 
1398	-0.813606560198316 
1399	 1.39997307378842 
1400	 0.33272542614198 
1401	-2.24461736044545 
1402	-3.32625157746094 
1403	-4.14396830607084 
1404	-4.64135799815192 
1405	-2.02325933812109 
1406	-0.135009596716492 
1407	-4.78818285513621E-02 
1408	 1.23288082356665 
1409	 0.898347286421466 
1410	 0.362267604683475 
1411	-0.713078607330769 
1412	-1.89814557667546 
1413	-0.383836553539 
1414	-2.450491441865 
1415	-3.80384729290769 
1416	-1.66429754787444 
1417	-1.49267563244719 
1418	-1.20501249203847 
1419	 0.777382321040847 
1420	 3.78399300513633 
1421	 5.95657318643643 
1422	 7.3517931033118 
1423	 5.68622874377563 
1424	 1.70994351719835 
1425	-1.2880934843704 
1426	-4.40687616894569 
1427	-5.7514448344667 
1428	-4.23702651545236 
1429	-3.30300602340268 
1430	-3.65040902144917 
1431	-1.91069333297627 
1432	-2.4429690353927 
1433	-6.5016414716764 
1434	-7.48373415973909 
1435	-6.56121863930616 
1436	-4.60933087137656 
1437	 1.83892789113174 
1438	 6.23876526288533 
1439	 5.16757048972559 
1440	 5.18218280002938 
1441	 5.50302148707903 
1442	 5.58186011951988 
1443	 7.08444749389704 
1444	 6.14199301820593 
1445	 5.38714671008904 
1446	 3.74732752708305 
1447	 0.902416134660454 
1448	-3.7149848974727 
1449	-4.74703017652449 
1450	-6.66195255400444 
1451	-7.05552763360058 
1452	-4.44204173487698 
1453	-1.57012298138931 
1454	 1.11830978403101 
1455	 2.40060576303738 
1456	 2.60878757224411 
1457	 3.07324955576072 
1458	 0.245444051491095 
1459	-1.55279468137863 
1460	-1.06618559816057 
1461	-0.91514912211198 
1462	-1.05393114873707 
1463	-1.1046235881158 
1464	 0.130057318543332 
1465	 3.24064838422541 
1466	 7.86396505056225 
1467	 9.29682463753697 
1468	 8.14808254618128 
1469	 5.10589935406098 
1470	 1.34523461302101 
1471	 1.31637250096345 
1472	 1.43971278774845 
1473	 2.64310549802325 
1474	 2.8459625894577 
1475	-1.02880795176613 
1476	-4.65326871155542 
1477	-8.05617341473601 
1478	-7.93687473463359 
1479	-3.74840778109406 
1480	-1.04391636739817 
1481	-1.43629187262631E-02 
1482	-0.438697879380458 
1483	-3.01939278008369 
1484	-2.44532395276325 
1485	 0.32636875481299 
1486	 1.27490337429982 
1487	 3.5425948987529 
1488	 3.18844317560589 
1489	 2.74535213109563 
1490	 5.70049731321381 
1491	 6.63976154586986 
1492	 7.84180415446918 
1493	 7.52827323792028 
1494	 4.26399020276208 
1495	 2.03915708703084 
1496	 1.9794887625673 
1497	 2.02510411375033 
1498	 0.882834540777244 
1499	 0.290073677703376 
1500	 0.801967444537005 
1501	 3.09586959296479 
1502	 3.66121791849289 
1503	 3.39277471063184 
1504	 3.4766052801609 
1505	 1.47528572127602 
1506	 1.44380835511919 
1507	 1.54359742035724 
1508	-0.74667240297541 
1509	-3.16187883203828 
1510	-5.31976801267595 
1511	-5.32783637322816 
1512	-3.06732807237057 
1513	-3.49453304204049 
1514	-4.8173453536037 
1515	-3.02879298163658 
1516	-4.35218258890774 
1517	-4.81409292838114 
1518	-1.49374181192917 
1519	-2.46819094838971 
1520	-3.39728098411923 
1521	-3.32761622450107 
1522	-2.8950504189629 
1523	 8.61608986141107E-03 
1524	 0.407683730391213 
1525	 1.99224025451129 
1526	 2.7623112957986 
1527	-1.72636579942702 
1528	-3.47334738646391 
1529	-4.32457110003423 
1530	-4.89266462118449 
1531	-2.3835472746278 
1532	-0.713944391204076 
1533	 1.61172262415367 
1534	 1.27441956748165 
1535	-0.407683200539636 
1536	-0.271951860871223 
1537	-2.18818762833249 
1538	-1.43424193199472 
1539	 1.18347111442575 
1540	 1.51702736931554 
1541	 2.34501880925273 
1542	 2.8437755988857 
1543	 1.2546540629636 
1544	 0.387552570047629 
1545	-0.021076182360641 
1546	-1.74344914705523 
1547	-2.32874394964532 
1548	-1.00075174641481 
1549	-1.2371944301966 
1550	-0.758387479548308 
1551	 2.84622512200036 
1552	 4.28554570305997 
1553	 5.39496242943538 
1554	 6.40698101626223 
1555	 3.060192317073 
1556	-1.6314052899583 
1557	-3.17634320199479 
1558	-1.77250551222824 
1559	-7.65441433359282E-02 
1560	-0.413596060169355 
1561	-3.7680217595077 
1562	-4.87293845447959 
1563	-7.29168631242813 
1564	-9.85814916765667 
1565	-6.21366243203229 
1566	-6.38436849102573 
1567	-6.3083620740611 
1568	-3.35629915133823 
1569	-4.01320412720766 
1570	-1.14543337343016 
1571	 2.06338783771587 
1572	 1.01309082860972 
1573	 0.301674293635026 
1574	-2.10801369029722 
1575	-4.69414080962799 
1576	-3.24541384220236 
1577	 1.08872817352214 
1578	 2.46674309429145 
1579	 0.19683439558803 
1580	-3.22362420290758 
1581	-7.45708178898923 
1582	-9.22156947707339 
1583	-8.54912263799089 
1584	-7.05031297908471 
1585	-6.37413104996467 
1586	-3.51160549955019 
1587	-0.290722890403476 
1588	 1.13394753125796 
1589	 3.13818479073467 
1590	 3.09142227879593 
1591	 2.62151635739719 
1592	 2.68306265736239 
1593	 2.22857112734296 
1594	 2.15094561545218 
1595	 0.428519280225067 
1596	-1.6619366606331 
1597	-1.00090115607778 
1598	-1.3290014693877 
1599	-1.55613041562085 
1600	-1.9181207783911 
1601	-3.00631508139155 
1602	-1.48651586320876 
1603	-0.744925666748611 
1604	 1.42955590365325 
1605	 3.92708451206029 
1606	 4.58914759788554 
1607	 4.15181912894496 
1608	 0.624664173409787 
1609	-1.29429870465404 
1610	-3.97178351663965 
1611	-3.69522016990297 
1612	 0.798798242596654 
1613	 1.46545261801531 
1614	 2.98030243235277 
1615	 3.5887799162419 
1616	 1.59296753790347 
1617	 1.93257107022849 
1618	 0.674117314228306 
1619	-3.66637681947857 
1620	-5.49411114110857 
1621	-5.41178586255223 
1622	-3.69093320299669 
1623	-0.120770367734464 
1624	 1.31915166060872 
1625	 0.837527468419743 
1626	 0.504414355486143 
1627	-0.129490158886496 
1628	-0.354143926538866 
1629	 0.338511649724083 
1630	 0.615098708698701 
1631	 2.30943653490882 
1632	 5.14063595383879 
1633	 7.0751156143819 
1634	 3.57772824240485 
1635	 1.84493788965231 
1636	-1.97084729195669 
1637	-3.90007676133615 
1638	-3.22140240905702 
1639	-2.7185217417775 
1640	-2.97916065608095 
1641	-1.74954986646171 
1642	 3.21768930072416 
1643	 4.58191567080666 
1644	 4.04012508052662 
1645	 5.10558095030308 
1646	 4.92050679770371 
1647	 3.661532915487 
1648	 3.19941609249834 
1649	 2.59935735575686 
1650	-9.13639626406154E-02 
1651	-1.07671925211942 
1652	 0.52001944870527 
1653	 0.212989927280128 
1654	-2.20989476790686 
1655	-2.63334620640919 
1656	-2.44698276821093 
1657	-2.22838647367859 
1658	 0.465717189319813 
1659	 9.46175119135905E-03 
1660	-2.43430374387944 
1661	-4.54417237013485 
1662	-9.60580242308967 
1663	-10.2688266471033 
1664	-9.02708794995109 
1665	-6.67549518701243 
1666	 0.390366000672595 
1667	 1.14354134532373 
1668	 0.246749721117581 
1669	-2.08120016376194 
1670	-9.54203774779699 
1671	-11.8517215193356 
1672	-12.6628834578101 
1673	-13.2337808138339 
1674	-12.1365479897986 
1675	-10.881860066347 
1676	-9.46771552477642 
1677	-7.69549108973257 
1678	-4.60119980609897 
1679	-2.89211674743754 
1680	-1.39576482594957 
1681	-0.515247852769076 
1682	 3.21878481935606E-02 
1683	-0.124730665305058 
1684	-2.33597941748475 
1685	-3.19537771450247 
1686	-3.065267251383 
1687	-1.21020972131689 
1688	-1.55726056287434 
1689	-5.56315823088867 
1690	-6.44259557976064 
1691	-7.8974510066902 
1692	-6.85765892404461 
1693	 0.466182555486787 
1694	 3.37951042706541 
1695	 5.19830373249778 
1696	 6.17022589189941 
1697	 3.48087313156486 
1698	 2.4986306762957 
1699	 2.43518753774572 
1700	 1.90399445117788 
1701	 1.13520714092996 
1702	 0.835706843333703 
1703	 0.698467085000784 
1704	 0.503089668032301 
1705	 0.267123460036775 
1706	 0.791266899961664 
1707	 1.70382704978658 
1708	 2.50954234639811 
1709	 4.65817089688585 
1710	 4.94102813266697 
1711	 3.52811220689517 
1712	 3.43579440136933 
1713	 3.53994160353399 
1714	 2.83923657270952 
1715	 2.48431895773105 
1716	 1.71403872149511 
1717	 7.47369136557924E-02 
1718	-1.91237045658578 
1719	-4.46775803731084 
1720	-5.23402279942331 
1721	-6.39925071483056 
1722	-6.14749303664089 
1723	-3.44471335210145 
1724	-2.42891686148883 
1725	-1.54001160934962 
1726	-1.5684181510282 
1727	-2.67152997400486 
1728	-1.67978058008954 
1729	-0.961634758972859 
1730	-1.2693691964737 
1731	 1.46941088673701 
1732	 2.81877278225508 
1733	 3.79643905986039 
1734	 7.55978716478048 
1735	 7.99097442878964 
1736	 4.87229505225321 
1737	 3.04619095387753 
1738	 0.368418195113248 
1739	-2.25020208110618 
1740	-5.54734724051847 
1741	-6.51064501496324 
1742	-7.31886356308205 
1743	-6.45820329859103 
1744	-1.46549296269299 
1745	 0.982865500485464 
1746	 3.19158615447133 
1747	 3.94847256568004 
1748	 2.67565765583494 
1749	 1.94671857135557 
1750	 0.194170934239733 
1751	 0.31410013249609 
1752	 2.20132108093461 
1753	 2.11411839587919 
1754	 2.02333251590959 
1755	 1.52273950873038 
1756	 11.4621432094749 
1757	 5.66471119182474 
1758	-17.9818454413361 
1759	-20.5642286722767 
1760	-13.5455120196771 
1761	-11.1541563635229 
1762	-14.5149411642764 
1763	-6.653118178416 
1764	-2.60382698991723 
1765	-9.65123071628403 
1766	-11.0367126214678 
1767	-2.182321393807 
1768	-1.3730102289075 
1769	-15.0917775582863 
1770	-11.0553219175774 
1771	-7.12934724124585 
1772	-8.56539295146686 
1773	-7.39501833281478 
1774	-8.67577273269574 
1775	-8.26634764882827 
1776	-1.19871218011603 
1777	 3.46932092147785 
1778	 13.6005183222194 
1779	 7.48532713893576 
1780	-1.82751966337283 
1781	-15.9385294359168 
1782	-25.2110650258762 
1783	-25.0900528305563 
1784	-26.8057334898656 
1785	-24.066588751653 
1786	-20.2648918935391 
1787	-16.2276399975445 
1788	-10.2875326208145 
1789	 9.86025344302289 
1790	 30.5088981321475 
1791	 22.0265479839935 
1792	 12.8524135548526 
1793	 6.54090078127447 
1794	 2.15817628625306 
1795	-8.61974495618724 
1796	 5.54153387033884 
1797	 13.3930413609055 
1798	 18.1185257301551 
1799	 18.7539732950359 
1800	 1.16454747658387 
1801	 1.23008644239881 
1802	-1.96636686635958 
1803	-3.37502008765637 
1804	 8.81374021018497 
1805	 12.616432056069 
1806	 14.3417957750165 
1807	 3.07405905502809 
1808	-3.6063890472595 
1809	-12.4632479853313 
1810	-11.9919044891253 
1811	-5.73230327986512 
1812	-0.659501027429507 
1813	 14.1491791196235 
1814	 17.366787124417 
1815	 17.6450835863006 
1816	 14.0821029777475 
1817	 0.575115157584041 
1818	-11.4319628811154 
1819	-6.29457381617975 
1820	-5.05425550523143 
1821	-3.82922876239253 
1822	 7.08968601317458 
1823	 12.4305725933607 
1824	 11.8932626002011 
1825	 11.3582186605009 
1826	 15.9193996542563 
1827	 13.9621296683758 
1828	 8.12155496917805 
1829	-7.12471359491475 
1830	-14.3215927949366 
1831	-25.6282161976257 
1832	-24.6492739419845 
1833	-13.5304295747522 
1834	-9.48770362485469 
1835	 2.81091281277319 
1836	 7.27586783689694 
1837	 2.28178266401108E-02 
1838	 3.87844514760311E-02 
1839	 8.20511865245873 
1840	 4.44250306592334 
1841	 4.79631647633704 
1842	 6.80718398903259 
1843	 7.42417065364096 
1844	 8.22761211162054 
1845	 5.15746595906943 
1846	-3.47587588341973 
1847	-5.95942643596994 
1848	-8.78014371446555 
1849	-12.399736597269 
1850	-8.55914837194026 
1851	 0.197445636000964 
1852	 3.04540111957234 
1853	 2.85571997739547 
1854	 4.49227465197901 
1855	 6.51848604959161 
1856	 3.69316709225116 
1857	-0.83067234637751 
1858	-4.87953937420539 
1859	-21.5434767201588 
1860	-21.6567545151064 
1861	-16.2333712709739 
1862	-11.6514712906673 
1863	-4.66221200006896 
1864	 11.2155071168507 
1865	 15.4016149454494 
1866	 17.6531817410483 
1867	 18.7477641548793 
1868	 15.1099641793342 
1869	 9.5239879612809 
1870	 6.39113883526379 
1871	-0.100122246043022 
1872	 0.615035675363565 
1873	 1.12985443705332 
1874	-0.636417554637923 
1875	-1.15114344896779 
1876	-3.36133057152892 
1877	-10.4008411673564 
1878	-14.7623227802269 
1879	-17.7545058222153 
1880	-22.05944107907 
1881	-22.5901294169902 
1882	-16.5345771312323 
1883	 1.55545229781648 
1884	 10.0898463292346 
1885	 3.56753481644771 
1886	 3.86195450624696 
1887	 2.32425057618065 
1888	-5.06327033423756 
1889	-13.713889776452 
1890	-19.6196427609965 
1891	-25.2156132438703 
1892	-27.8308945739555 
1893	-19.4172620456655 
1894	 1.83323148941663 
1895	 12.4194370823589 
1896	 13.8359524503423 
1897	 11.6906242471795 
1898	-3.21590347382144 
1899	-10.8485527334001 
1900	-18.735912580331 
1901	-26.9364832436287 
1902	-26.4429045191342 
1903	-29.4720596624054 
1904	-30.0723628071254 
1905	-23.8097422290105 
1906	-32.59773974602 
1907	-33.8179949888014 
1908	-35.1017448693401 
1909	-45.1383850284652 
1910	-42.7861589030223 
1911	-24.0900915337843 
1912	-18.1167739915151 
1913	-12.7459368420607 
1914	-5.2042940108781 
1915	-11.2018380771354 
1916	-22.2961275745991 
1917	-19.4130895633126 
1918	-10.7971551996426 
1919	-1.86233877261197 
1920	 19.4938839005745 
1921	 26.5336399486656 
1922	 31.2578868272524 
1923	 28.702175392157 
1924	 12.121075815743 
1925	 6.2842900282437 
1926	 2.99136437244101 
1927	-6.67716494926695 
1928	-13.4692145526263 
1929	-14.8803533927301 
1930	-11.7254320797949 
1931	-4.72864576146342 
1932	-2.99612298137184 
1933	 9.01930163682259 
1934	 5.90737917935343 
1935	-17.0878896108943 
1936	-23.5057429379635 
1937	-31.5375634649406 
1938	-30.8572840873365 
1939	-14.7126389709523 
1940	-5.29972732567613 
1941	 3.75177415799743 
1942	 19.2479530551264 
1943	 19.3059174935189 
1944	 5.07455858431364 
1945	 4.67360825024176 
1946	 5.10164874922258 
1947	 2.7495319031705 
1948	 8.07309686661389 
1949	 8.47258841416935 
1950	-0.277794124184904 
1951	-6.80214945751223 
1952	-10.7133288104581 
1953	-18.5936612683399 
1954	-18.0542894472041 
1955	-19.8040742028306 
1956	-11.9625899545527 
1957	 12.6842012564345 
1958	 21.5392278193984 
1959	 25.4620834741051 
1960	 32.9888820460681 
1961	 38.2210903126022 
1962	 40.5549708777505 
1963	 45.7487487476835 
1964	 47.9714412181292 
1965	 48.163903049329 
1966	 37.8425668825307 
1967	 34.9258286595181 
1968	 37.0748976759308 
1969	 31.1847782651107 
1970	 18.3113041042325 
1971	 13.7595710862026 
1972	 6.36904038275129 
1973	 4.8096158238962 
1974	 17.3699471872674 
1975	 18.2125011108709 
1976	 13.8709288265956 
1977	 11.486932579529 
1978	 7.68947393726192 
1979	-4.57203755001036 
1980	-5.665442076156 
1981	 9.15827782466654E-02 
1982	 0.894604968945316 
1983	 6.88617711934662 
1984	 6.20112243175437 
1985	-3.4042828149705 
1986	-6.1821865513811 
1987	-10.1444853277123 
1988	-10.8690907076306 
1989	-1.19898235910905 
1990	 0.11727039111322 
1991	-2.68834683279772 
1992	-6.66352564404481 
1993	-7.88206219600441 
1994	-7.71537314876699 
1995	-5.15387205858236 
1996	 6.0160641377628 
1997	 10.4176015187083 
1998	 12.3370194133745 
1999	 12.6597844360944 
2000	 15.5408979298404 
2001	 10.0140293410769 
2002	-6.05421891371624 
2003	-14.3785818010764 
2004	-21.2244634976241 
2005	-37.3069615641955 
2006	-38.5131926001656 
2007	-28.3540314249715 
2008	-18.3739379686869 
2009	-4.13263305665816 
2010	-0.940893396035809 
2011	-1.67374555684886 
2012	-4.5419353010935 
2013	-18.6072506677142 
2014	-23.4726122999933 
2015	-29.6128289572631 
2016	-27.3453785566539 
2017	-13.486508117808 
2018	-8.70293612997922 
2019	-0.811720288434801 
2020	 8.80724858570762 
2021	-7.5868603659503 
2022	-26.9514165318739 
2023	-34.1894320151263 
2024	-47.4727986959981 
2025	-45.3366568852197 
2026	-22.57355567799 
2027	-12.3161740557829 
2028	-0.780263909266974 
2029	 10.0206329713657 
2030	 19.4704095002457 
2031	 28.5657730817082 
2032	 41.7531439755574 
2033	 45.8113351029672 
2034	 42.9594833310703 
2035	 30.6227234587816 
2036	 24.1458751966947 
2037	 16.8173564231522 
2038	 21.2574411104272 
2039	 26.3150569842445 
2040	 13.4329152217806 
2041	 11.4562701156027 
2042	 5.92058172994198 
2043	-12.2730052322541 
2044	-14.6446636945784 
2045	-7.55249355821835 
2046	-1.20613733622481 
2047	 22.8717635079814 
2048	 30.0876338380969 
2049	 29.8997228872328 
2050	 27.4680879961719 
2051	 21.7074270696468 
2052	 5.83965087567624 
2053	 2.02577835453547 
2054	 3.09064082916116 
2055	 5.8510668140987 
2056	 11.1574552459182 
2057	 25.3943475297336 
2058	 36.6911965157689 
2059	 38.2497365171331 
2060	 31.1727285954285 
2061	 28.8961768515213 
2062	 18.2943568358512 
2063	 13.670041883088 
2064	 12.7917274185278 
2065	 18.6694606536026 
2066	 13.4018811315812 
2067	 6.31881710629082 
2068	-1.33650579123582 
2069	-13.5101124121074 
2070	-16.7290920128457 
2071	-18.2729120519771 
2072	-14.4944112078056 
2073	-8.2356027837556 
2074	-10.7088082007063 
2075	-9.98360275136193 
2076	-7.63670159355833 
2077	-6.31752043094377 
2078	-5.55878349578147 
2079	 2.58491640127972 
2080	 1.12657048500081 
2081	-9.13668013095251 
2082	-14.9382535114743 
2083	-14.1341538589722 
2084	-17.1222313023415 
2085	-8.63223294063915 
2086	-1.58332893929408 
2087	-0.476505075994384 
2088	 1.48094463927165 
2089	 4.74021913514119 
2090	 13.804421937582 
2091	 11.004792248185 
2092	 8.00684467338855 
2093	 1.64172248982121 
2094	-17.4004742573583 
2095	-26.1631567516035 
2096	-32.9832855023759 
2097	-34.2098608488188 
2098	-31.5609440491321 
2099	-18.7321637409901 
2100	-11.4041456141097 
2101	 4.81113478264358 
2102	 13.2337866511595 
2103	 7.0801748788602 
2104	 0.444389298898545 
2105	-9.01709946402274 
2106	-9.72437293971766 
2107	-6.54368534259238 
2108	-7.08335676728184 
2109	-8.38969001877853 
2110	-12.1710384875935 
2111	-19.9774041372151 
2112	-17.9056582301981 
2113	-18.9662116706092 
2114	-17.7596811283 
2115	-12.3112113449035 
2116	-10.4460541040183 
2117	-5.11429816367232 
2118	-6.48147988520518 
2119	-14.1730798314167 
2120	-26.8009557199574 
2121	-31.0252618722043 
2122	-38.2431381769476 
2123	-29.5343378191337 
2124	-19.2052847062195 
2125	-22.6512495935361 
2126	-13.7294530085664 
2127	-12.9594109918214 
2128	-13.1189081554987 
2129	-6.05421775851278 
2130	-7.46500083163338 
2131	-7.95562135936813 
2132	-14.9563817137689 
2133	-18.3708203753683 
2134	-17.9394612047601 
2135	-17.4027621228365 
2136	-13.0404666044037 
2137	-11.6993009139518 
2138	-13.1049228787134 
2139	-10.4724205456858 
2140	-8.64142514508734 
2141	-1.57730765070066 
2142	 9.33375377782399 
2143	 16.880076189376 
2144	 22.3134527045784 
2145	 20.2711031776626 
2146	 13.3375474345431 
2147	 9.74310538772337 
2148	 11.2653928315287 
2149	 16.0202733775617 
2150	 17.3126799243919 
2151	 22.8541178571162 
2152	 22.561640661694 
2153	 20.5349714193533 
2154	 36.3912476026915 
2155	 45.8827554279879 
2156	 43.5742104939784 
2157	 42.5877258604076 
2158	 34.7065446384219 
2159	 5.44244201195812 
2160	-6.97088414504969 
2161	-9.80658270243585 
2162	-17.9784038942875 
2163	-29.0474934880389 
2164	-25.8910705291926 
2165	-21.4271457932477 
2166	-17.7480430127768 
2167	-2.25530496634249 
2168	 12.3201099321754 
2169	 18.2075587311073 
2170	 15.6976105720698 
2171	 5.61302436623164 
2172	-2.28150237552844 
2173	-13.0470086654033 
2174	-14.0730760166741 
2175	 4.10433048097187 
2176	 15.193916918283 
2177	 29.7144486359592 
2178	 43.9162369863979 
2179	 39.1832349721375 
2180	 32.7559691260424 
2181	 25.52499561846 
2182	 8.16334188432019 
2183	-0.493335755066736 
2184	-1.62159140276343 
2185	-4.81498518159235 
2186	-5.26480066504869 
2187	-3.37158599837685 
2188	 2.72672610908017 
2189	-5.25367265244896 
2190	-9.78670907110774 
2191	-10.8321697154401 
2192	-17.2934453480402 
2193	-23.1279293617089 
2194	-11.3026540798216 
2195	-9.16575891566985 
2196	-3.40704819972487 
2197	 10.0097521692325 
2198	 11.966786610772 
2199	 11.3231029340208 
2200	-1.73595648339582 
2201	-9.67174657894832 
2202	-18.9237790639218 
2203	-27.8369548932545 
2204	-26.5112842350031 
2205	-22.3510519618854 
2206	-11.8459698681098 
2207	-3.23512675701906 
2208	 0.930300774644058 
2209	-4.24915601086788 
2210	-6.31539213219491 
2211	-14.6163055069139 
2212	-16.7481726120966 
2213	-9.75249159312363 
2214	-13.1737113219608 
2215	-25.2196849046673 
2216	-29.443659288363 
2217	-37.8829880371171 
2218	-36.7070609837494 
2219	-26.2138743968496 
2220	-15.8382586048023 
2221	-6.93022544753539 
2222	 6.13162963533701 
2223	 18.3320881239053 
2224	 21.7220792794978 
2225	 19.9850301667467 
2226	 10.5903528842513 
2227	-5.7996185577468 
2228	-13.5326313654106 
2229	-14.3612056680269 
2230	-16.9960685451958 
2231	-4.21665839870414 
2232	 5.26215667506527 
2233	 13.380399734444 
2234	 24.5008558989752 
2235	 11.3640726513775 
2236	-2.44117481713459 
2237	-14.7635296592373 
2238	-20.3392766933829 
2239	-7.6124470815704 
2240	 4.55043031181669 
2241	 19.6194512051484 
2242	 31.3213922974799 
2243	 35.5487263820802 
2244	 35.441303653881 
2245	 31.412428487361 
2246	 15.5616955859992 
2247	 8.29016868183408 
2248	 1.20719870290268 
2249	-4.10124274493104 
2250	-5.63391687575824 
2251	-7.1882273123213 
2252	-6.85582567358758 
2253	-9.4640863083837 
2254	-12.9949465414873 
2255	-14.8569819629781 
2256	-19.5062571521665 
2257	-18.9251785938519 
2258	-19.8184211721009 
2259	-20.6562453187797 
2260	-19.5547261612425 
2261	-30.2235597282272 
2262	-30.2861488632771 
2263	-24.0726959902111 
2264	-20.7792836636261 
2265	-8.67537920852982 
2266	-6.13572343492615 
2267	-5.27112483092824 
2268	-2.25425932824424 
2269	-3.66478964623423 
2270	-0.875837745388128 
2271	 1.77053379415448 
2272	 0.930497696328921 
2273	-1.42900022295077 
2274	 2.1202921809299 
2275	 0.958322014569368 
2276	-3.53130845609429 
2277	 1.91434991580843 
2278	-1.7460646099258 
2279	-5.29618015693704 
2280	-0.903868295912056 
2281	-6.2713326362174 
2282	-6.36818025070774 
2283	-8.38845403516157 
2284	-8.71650962697202 
2285	-5.12180110204116 
2286	-3.36191600200721 
2287	 1.2779244049448 
2288	 6.0736286611904 
2289	 10.1413700539218 
2290	 13.9203646532866 
2291	 21.7002909705276 
2292	 16.4561984667875 
2293	 2.50721994543744 
2294	-10.1889821642842 
2295	-35.393988209997 
2296	-45.0126638956859 
2297	-46.0602014967723 
2298	-46.3329594912579 
2299	-36.7037329940372 
2300	-33.3032642769115 
2301	-32.0574438373331 
2302	-28.4154138722412 
2303	-27.7555740145155 
2304	-24.2943434350082 
2305	-18.4246712041527 
2306	-12.3521553753959 
2307	-2.00389546467998E-02 
2308	 3.22905635970328 
2309	 4.20363808276884 
2310	 2.27147562665357 
2311	-11.1490554724073 
2312	-16.1439547981814 
2313	-28.2725497633499 
2314	-25.6632340668003 
2315	-17.2189939852828 
2316	-13.2148081822114 
2317	 12.9252288571429 
2318	 10.613931371277 
2319	 3.32080505850334 
2320	 8.48422176919115 
2321	-3.11348521575541 
2322	-1.20070001814233 
2323	 5.12085398852293 
2324	 2.62083179773121 
2325	 0.871398379521166 
2326	-6.36870139485848 
2327	-9.71749232345376 
2328	-8.94851303423565 
2329	-3.4846995530447 
2330	 7.17047440058971 
2331	 5.481436575581 
2332	-0.947833107268157 
2333	-13.0386709472344 
2334	-27.5624338925303 
2335	-32.1712254009628 
2336	-34.8384323243283 
2337	-27.4461305230291 
2338	-20.63407026616 
2339	-21.2128916544001 
2340	-18.1901637606753 
2341	-32.0324599680343 
2342	-44.0033904836136 
2343	-39.6247951465233 
2344	-40.2954402110696 
2345	-29.1392468256469 
2346	-16.2873798354198 
2347	-16.3733956654989 
2348	-14.6707933525649 
2349	-18.0555293715747 
2350	-24.4358105786455 
2351	-23.1554362885882 
2352	-25.2293354829073 
2353	-23.398647753 
2354	-15.6204341262938 
2355	-9.33870652536836 
2356	 0.811395324323474 
2357	-0.716603911915274 
2358	-9.82193822543147 
2359	-25.3042852105265 
2360	-45.4011288901008 
2361	-53.6377120633975 
2362	-49.3473303950501 
2363	-36.0254510652857 
2364	-20.674543043093 
2365	-3.27176248683043 
2366	 3.60770193833365 
2367	 1.29005589966111 
2368	 0.687666254717473 
2369	-9.07752162570111 
2370	-16.9035194587644 
2371	-12.7563768512058 
2372	-9.02041684780513 
2373	-3.14955337686336 
2374	 9.7340203138409 
2375	 11.9593164234058 
2376	 13.2634872249609 
2377	 18.9917461830808 
2378	 6.96236138220411 
2379	 1.23426813248893 
2380	-0.753704929842538 
2381	-11.0950693954914 
2382	 1.15283825747243 
2383	 17.6106599428723 
2384	 20.4788280085562 
2385	 32.9766878673414 
2386	 30.4586472466833 
2387	 19.0538411461864 
2388	 21.0810694168729 
2389	 6.58818349031 
2390	-8.34490407835382 
2391	-16.9189972113076 
2392	-26.7404999677883 
2393	-31.2118611169151 
2394	-28.7195165828901 
2395	-28.9525140231106 
2396	-36.1886313668096 
2397	-32.5942584741058 
2398	-30.4042484758487 
2399	-18.2193401676745 
2400	-3.06943925536404 
2401	-4.64566301249471 
2402	-1.64810264335734 
2403	-15.5529140509527 
2404	-32.529871929543 
2405	-34.8220452009848 
2406	-49.2487354091901 
2407	-49.9108616738227 
2408	-46.1011954420071 
2409	-44.6505468592808 
2410	-31.4413597552773 
2411	-23.2153925431019 
2412	-13.0898984951069 
2413	-9.50575993668932 
2414	-2.80455333175737 
2415	 1.56716558817656 
2416	-1.63680915553763 
2417	 3.28474977428057 
2418	 3.24997276810728 
2419	 3.98445453910984 
2420	 1.51625696608439 
2421	-2.21451095963643 
2422	-6.9884403963722 
2423	-8.61963268498841 
2424	-3.15260947598268E-02 
2425	 2.5802558525484E-03 
2426	-2.45318908620372 
2427	-2.06946936029774 
2428	-2.3444751563148 
2429	-6.60545349494055 
2430	-11.5522185628212 
2431	-17.7267038581678 
2432	-29.9133081745368 
2433	-28.6646942341464 
2434	-18.1466009594954 
2435	-8.5757681500474 
2436	 2.38046175411555 
2437	 3.64343000460046 
2438	-1.47821960536131 
2439	-6.05932188613829 
2440	-12.2916851256108 
2441	-13.2354121762569 
2442	-13.864423629682 
2443	-17.8986922609961 
2444	-17.6505125881783 
2445	-8.16234614749072 
2446	 4.52770091560801 
2447	 12.0932474601756 
2448	 23.1951595309788 
2449	 21.6445315114658 
2450	 13.8870470412193 
2451	 9.50861790813079 
2452	-1.15847901262351 
2453	-3.90477894930982 
2454	-5.64950098174834 
2455	-2.45342826760707 
2456	 3.73517934716635 
2457	 2.06156350541564 
2458	 4.27465770663178 
2459	 11.3287428836651 
2460	 13.50757284943 
2461	 4.96035214490702 
2462	-5.93017465761382 
2463	-24.5761538553127 
2464	-39.0744422188331 
2465	-33.546981437991 
2466	-29.6582608132949 
2467	-11.7996711878629 
2468	-7.18748538155775 
2469	 1.44236100611133 
2470	-0.855672149540717 
2471	-8.25539343152731 
2472	-6.71301921715337 
2473	-25.3991501472244 
2474	-32.4721448604302 
2475	-26.6187283575313 
2476	-30.0363158086077 
2477	-21.3038475449771 
2478	-19.4986930166522 
2479	-31.1986253906611 
2480	-44.3201673046396 
2481	-47.2344549522923 
2482	-44.13407064562 
2483	-28.4946291696905 
2484	-1.43520951341613 
2485	 12.5807610123127 
2486	 23.9792166666404 
2487	 17.0251883534989 
2488	 0.734536557457454 
2489	-7.1943852812724 
2490	-20.3953983346139 
2491	-16.8130549404445 
2492	-12.0177865651696 
2493	-14.6629992400477 
2494	-8.33688900520626 
2495	-7.35508774141045 
2496	-9.87254365662626 
2497	-3.09477908890467 
2498	-3.04290783009383 
2499	-15.6791454797982 
2500	-9.75907391897791 
