Wavelength	4mm_BlackPLA00000.asd
350	 2.83780673748299 
351	 2.47159152693916 
352	 1.371691095161 
353	 1.53873937282321 
354	 1.38084277387615 
355	 1.39936980032822 
356	 1.80705398450066 
357	 0.845398703686511 
358	 0.370556143584439 
359	 0.588448979964135 
360	 0.356193214529354 
361	 0.587844134246783 
362	 0.914924163469 
363	 0.854566778123095 
364	 0.591497637942529 
365	 1.26728745816469 
366	 2.1228749008721 
367	-0.144957940490542 
368	-0.798132512497758 
369	 0.050672238884504 
370	 0.661552916884726 
371	 0.24990338501743 
372	-3.79098101421782E-03 
373	 0.386532099343425 
374	 0.16610770234749 
375	 0.703993126496777 
376	 1.37462564167656 
377	 0.715194217561405 
378	-7.34302474767216E-02 
379	-6.32407635212686E-02 
380	 0.810169932325841 
381	 0.212750206906267 
382	 0.166943956993887 
383	 0.683728488040766 
384	 9.72333789081694E-02 
385	 0.827767548244608 
386	 1.92976187881583 
387	 2.0007666916434 
388	 1.95194128488747 
389	 0.982200758954041 
390	-0.541134641400061 
391	-0.305472024466232 
392	 0.024873514963377 
393	 0.433817457160476 
394	 1.37272883456558 
395	 1.94113049107465 
396	 0.901973773342628 
397	-1.41436706016826 
398	-0.559748201496914 
399	 0.197524885440738 
400	 0.695084589829663 
401	 2.92288483212907 
402	 2.19317140392882 
403	 0.021646270404937 
404	-0.890047334885384 
405	 0.129250693307963 
406	 0.74629491505026 
407	 0.158075073328067 
408	-0.136450147768237 
409	 1.35877496927327 
410	 2.63263680840155 
411	 0.657180290341695 
412	 6.52059072018626E-02 
413	 0.578551344752959 
414	 1.15733679796851 
415	 0.432345943271771 
416	 1.19145336683718 
417	 2.65304255002008 
418	 0.882105381600309 
419	 1.26482142726232 
420	 1.61224157719319 
421	-0.892832312143669 
422	-0.17122877529161 
423	 0.018246790761624 
424	-1.40064989328289 
425	 1.26504493996326 
426	 0.789282878496877 
427	-1.42667442365313 
428	 0.22027866539862 
429	-5.51716366181855E-02 
430	-0.567248751925616 
431	 0.560196083094896 
432	 0.828442229014143 
433	 0.355499419867523 
434	-0.161320496555019 
435	 0.820673803361004 
436	 0.440474176736124 
437	-0.804129415902366 
438	-1.1144104737466 
439	 0.371192488079942 
440	 1.02741387785854 
441	-0.228389363794899 
442	 1.02877262322433 
443	 1.21512130687723 
444	 0.155632056100565 
445	 0.665867168431323 
446	 2.32379148466747 
447	 2.71665288036706 
448	 0.102288755225314 
449	 1.39125844742461 
450	 2.19801410523652 
451	 0.405317657978922 
452	 0.561839788173126 
453	 1.34104287485222 
454	 1.97810670744629 
455	 1.84307378083798 
456	 0.292193508291294 
457	-0.938455097308809 
458	-0.351991494370509 
459	-0.578812535459718 
460	-0.716556157760628 
461	-0.299286383906324 
462	 0.180531481340639 
463	 3.95285003569733E-03 
464	-0.730483350960599 
465	-1.37175538656792 
466	-0.865979941028166 
467	-0.354756210114814 
468	-0.800495029935056 
469	-0.440515171579581 
470	-0.304029876611737 
471	-0.445506128811582 
472	 0.952302230963576 
473	 1.82162784238366E-03 
474	-1.55859110286123 
475	 0.249848277973175 
476	-5.54442763627265E-02 
477	-0.789207098282251 
478	-7.07826129542942E-02 
479	 0.107321082872689 
480	-0.260339729735016 
481	-0.487806544681819 
482	 1.29789741010673 
483	 1.25163350046644 
484	-0.243905278372988 
485	-0.923164703878687 
486	 2.02265585076513E-02 
487	 1.03434765786987 
488	 0.874833823673307 
489	 0.697102194556998 
490	 1.05765722092072 
491	 1.38400272407609 
492	-0.592750052008198 
493	-0.964250550241225 
494	-0.28993765974369 
495	-0.782650443591743 
496	-0.531517220280444 
497	-0.329151469486369 
498	-0.838666836552487 
499	-0.946795020777613 
500	-1.29630250745773 
501	-1.83605266352596 
502	-1.59011842296008 
503	-1.01775367938829 
504	-0.711560931452711 
505	-1.23197377613828 
506	-1.42005441620236 
507	-1.13944693448244 
508	-0.513133663266831 
509	 0.312590247068825 
510	-0.135016397300333 
511	-1.63330777964625 
512	-1.68300007793652 
513	-0.999481778370338 
514	-0.523531991906342 
515	-1.27700936712866 
516	-1.86608884357768 
517	-1.63745236506814 
518	-0.590552151008395 
519	-0.501990438114318 
520	-0.451601234411129 
521	 6.37150566754128E-02 
522	 1.115625157102 
523	 0.408867964756295 
524	-1.09064479375179 
525	-0.938994976393924 
526	-0.75768518552614 
527	-1.24137726001806 
528	-2.35934569836322 
529	-1.77680606273554 
530	-1.58745028428769 
531	-2.26887203897544 
532	-1.43623234529497 
533	-1.19031731635774 
534	-1.50269074062118 
535	-1.34300002952169 
536	-1.21781344821684 
537	-1.52129677295928 
538	-2.26142749504848 
539	-1.73619483423745 
540	-1.36075110219409 
541	-1.78049730096175 
542	-2.14075820742197 
543	-2.15925157059686 
544	-1.63997826460799 
545	-0.536950259092543 
546	-0.329725179820594 
547	-0.488763152363157 
548	-0.161259940213034 
549	 0.484450655685312 
550	-0.326476310879661 
551	-2.42053053691102 
552	-1.03804147058737 
553	-0.554063580304544 
554	-1.48112765081793 
555	-1.66197769356619 
556	-0.937545426344861 
557	-0.87212799396846 
558	-2.69329700245057 
559	-1.4153504667037 
560	 5.19797746365167E-04 
561	-0.427081606272792 
562	-0.642498006141746 
563	-0.100959907717293 
564	 0.291998642953619 
565	-1.96795238984294 
566	-2.38364402401265 
567	-1.81675217556412 
568	-2.59254102429434 
569	-2.62105039349435 
570	-1.43369643972197 
571	 0.267303086532814 
572	-1.33382115159766 
573	-2.24149236980964 
574	-1.57565354008419 
575	-2.15048106288015 
576	-1.5940584452898 
577	-0.61554584908382 
578	-0.98357366306131 
579	-1.09363260400912 
580	-1.67563869452154 
581	-3.07232565659121 
582	-2.86789358473009 
583	-2.25874623658456 
584	-1.72287213644316 
585	-0.395034434093348 
586	-0.226643455049784 
587	-1.04626576117072 
588	-1.56508787808274 
589	-2.08922549373661 
590	-2.364902812577 
591	-2.10167625270084 
592	-1.05805553463985 
593	-0.485360509851181 
594	-0.90055495591343 
595	-1.4463559910158 
596	-1.85350716587196 
597	-1.65216478833584 
598	-0.292271889688416 
599	 0.371567636745952 
600	 0.101525860538993 
601	-0.749604289632758 
602	-1.46131124825296 
603	-1.76616761133565 
604	-1.58515634463096 
605	-1.03271089087019 
606	-0.573838438438255 
607	-0.542928667255911 
608	-1.19007750975228 
609	-1.96384701822057 
610	-2.32017342532158 
611	-1.83159165249241 
612	-0.884068613901859 
613	-0.99217221992757 
614	-2.36942612240857 
615	-0.661071571708961 
616	-0.536633732487441 
617	-2.56700333501023 
618	-2.35327252611315 
619	-1.1900721503499 
620	-0.110747310072776 
621	-0.199801406881931 
622	-1.21481962514856 
623	-1.60654771130102 
624	-0.572629959882505 
625	-1.12054933070152 
626	-1.11927670333825 
627	-0.288456868494092 
628	-1.75819463947816 
629	-2.65175462200156 
630	-2.54887534484397 
631	-2.19824560435252 
632	-0.474877521517799 
633	 0.678007879427809 
634	-0.39195879337982 
635	-0.301613527183315 
636	-0.710654663596106 
637	-2.25753601608046 
638	-3.18430693994238 
639	-2.03871846745898 
640	 3.52846120696579E-02 
641	-0.244842578293631 
642	-2.1471550821336 
643	-4.20241095620522 
644	-4.78427838706839 
645	-3.83322654828735 
646	-1.99037366858368 
647	-0.305374947375924 
648	-0.95436084335248 
649	-0.87270385778801 
650	-0.220919151943038 
651	-2.3965957724159 
652	-2.63123894606824 
653	-1.56664409273047 
654	-1.55816903245129 
655	-1.55887170216029 
656	-1.39088596320007 
657	-1.25171377795907 
658	-2.46201914858983 
659	-2.60929550281302 
660	-1.52332152607719 
661	-1.93198102441698 
662	-2.72898499328823 
663	-2.96430636092788 
664	-1.84711494322626 
665	-2.29920430171733 
666	-2.12965203636164 
667	 0.128813975551384 
668	-0.569940421478293 
669	-1.47796967881576 
670	-1.2461762069497 
671	-0.834261840514671 
672	-1.4757562796788 
673	-2.39518084704719 
674	-1.67064412138448 
675	-0.708517367679121 
676	-0.483585762808319 
677	-1.44364558573432 
678	-1.9894449049387 
679	-2.6369067450983 
680	-3.23697506176313 
681	-1.77082587219654 
682	-1.41081716942216 
683	-1.85167863511969 
684	-0.512842123915246 
685	-1.19348955953318 
686	-2.34635902256244 
687	-1.76569881458841 
688	-2.56583101509022 
689	-2.19709934141299 
690	-0.146705920803697 
691	-1.81893352514719 
692	-2.62334118422705 
693	-2.10956053342974 
694	-3.0856912688379 
695	-2.35966871949702 
696	-0.629165110212113 
697	 0.251775144014144 
698	-0.572517212313078 
699	-1.56258761991943 
700	-1.70108564566149 
701	-2.19217421157932 
702	-1.0698411895198 
703	 0.711316455243384 
704	-0.857435073638395 
705	-2.59295520750554 
706	-3.11690379802782 
707	-1.9365645755711 
708	-1.47033335625453 
709	-1.10422699936226 
710	-0.516804815328572 
711	-1.70043577126191 
712	-2.31122827786157 
713	-1.98483055650579 
714	-2.6038762345506 
715	-3.02576919083587 
716	-2.96261976375932 
717	-2.44403477477107 
718	-1.70848003507495 
719	-1.35142160545238 
720	-1.6955888853487 
721	-2.30358494285122 
722	-1.79383502878888 
723	-0.625762544012613 
724	-1.71779571626348 
725	-2.87039456204604 
726	-3.10043059271631 
727	-2.05659807588765 
728	-1.90880342751348 
729	-2.40136871407304 
730	-2.70748479514812 
731	-1.38669967917848 
732	-0.396595729928938 
733	-0.643138496594027 
734	-1.81269758526415 
735	-2.09605661637 
736	-1.86216074260393 
737	-2.29837098251095 
738	-1.12493564607484 
739	-0.062329765266622 
740	-0.588094640876998 
741	-1.06491178398336 
742	-2.00033199209215 
743	-2.82678293622574 
744	-1.22145025963248 
745	-0.95318030963747 
746	-1.60378832046403 
747	-1.12461178738673 
748	-1.11424753028415 
749	-1.83333383870986 
750	-2.97723759335037 
751	-3.20201054196732 
752	-2.23787711068352 
753	-1.11924080604237 
754	-2.90827658084258 
755	-2.24559328660178 
756	-0.751283441893993 
757	-2.39514392281165 
758	-2.44323841170165 
759	-0.881482804157092 
760	 0.921615401004543 
761	-0.570225271227093 
762	-2.04212405391552 
763	-2.07209402882358 
764	-1.28928905669801 
765	-2.28959702866824 
766	-3.22715045233817 
767	-1.17132481101154 
768	-1.46196775407529 
769	-2.26938465440742 
770	-1.92428846661006 
771	-1.97045157803614 
772	-2.83481716248888 
773	-3.52744055464467 
774	-1.41374302571102 
775	-0.884686582241362 
776	-1.57251029938112 
777	-1.71818111183569 
778	-2.31475654861828 
779	-2.71902622190731 
780	-2.53496263510629 
781	-2.37768719508763 
782	-1.56938251825725 
783	-0.61418002074913 
784	-1.02110567369494 
785	-2.41371329568825 
786	-3.81734958792194 
787	-4.05678448981458 
788	-1.92026628292589 
789	-1.02160886042828 
790	-2.4159144286387 
791	-1.02689363504188 
792	-1.32116452089154 
793	-3.00729349065173 
794	-2.94745059129626 
795	-1.57739577000049 
796	-1.30819506514205 
797	-3.45880022991595 
798	-2.32296529767433 
799	-1.10407450922041 
800	-1.29602415791899 
801	-1.28915017014598 
802	-1.56507818633722 
803	-1.88385450808081 
804	-1.75907649956233 
805	-1.36036997551584 
806	-1.1167075302876 
807	-1.31692438554129 
808	-1.77152636477796 
809	-1.9109196620995 
810	-1.54384159300417 
811	-0.843187242731339 
812	-1.42833247526179 
813	-2.24961894075234 
814	-1.69169398871189 
815	-1.25582795713336 
816	-1.57914176023704 
817	-2.57455375662698 
818	-2.77620839070147 
819	-2.71589190992875 
820	-2.67648769551011 
821	-2.81803983649388 
822	-2.5042085877558 
823	-1.94658151792185 
824	-1.61735905467088 
825	-2.20811463906486 
826	-3.18303022939496 
827	-3.44289430032809 
828	-0.743033306252796 
829	-0.530080754903071 
830	-1.70396526255952 
831	-0.904472102588802 
832	-1.62150509477917 
833	-2.59659005729232 
834	-2.48873425136012 
835	-0.994166715605849 
836	-0.901318359792741 
837	-1.73116031937922 
838	-0.397638719686509 
839	-0.619421562788605 
840	-1.56151442060669 
841	-1.66337698317413 
842	-1.63755452610067 
843	-1.48752127384593 
844	-1.37891963287446 
845	-1.89910199931621 
846	-1.12395653067054 
847	-2.35713373584619E-02 
848	-0.633469500709493 
849	-2.33940329871673 
850	-2.7056234106491 
851	-1.06163479641683 
852	-1.83234736278636 
853	-2.02629709476846 
854	-1.43165101358827 
855	-1.77718520128519 
856	-2.67112079261934 
857	-2.57433978999857 
858	-0.761397253359523 
859	-0.859532593895933 
860	-1.63473948817654 
861	-2.24953118542229 
862	-2.52084702205714 
863	-2.81809684793721 
864	-2.56739945069731 
865	-1.14701394232259 
866	 0.372100091668112 
867	 0.288018353687301 
868	-1.52596908901103 
869	-2.04556843523729 
870	-2.58281597642266 
871	-2.9873136813436 
872	-2.52017811504067 
873	-1.44496359749138 
874	-0.648175640580683 
875	-0.718259550824879 
876	-1.2099984537512 
877	-1.85471916337932 
878	-2.50773528080106 
879	-3.10175612192488 
880	-2.31702997526863 
881	-1.60376177836317 
882	-2.26635203701426 
883	-2.27268067078005 
884	-2.42623499924882 
885	-2.56906637492391 
886	-1.29074903463891 
887	-1.50445190129345 
888	-2.56115280663443 
889	-2.79274327011987 
890	-1.5299682949413 
891	-1.26731870491393 
892	-2.44292654033718 
893	-1.8968450527847 
894	-2.20045606928474 
895	-2.41651075839982 
896	-0.873541012353141 
897	-0.968654321004515 
898	-1.64574473506991 
899	-2.07422680705809 
900	-3.05499121407963 
901	-1.87993480868671 
902	 0.196550446203611 
903	 0.212471714148985 
904	 4.78370116215186E-02 
905	-0.574242738346681 
906	-1.67052704806858 
907	-1.99598903080414 
908	-2.24570329982272 
909	-2.57893454879824 
910	-2.85735769923928 
911	-3.13802298145829 
912	-1.72120926821952 
913	 1.34008513591938 
914	 0.63321951469346 
915	-1.31258252098806 
916	-2.4742902759196 
917	-1.29999025423853 
918	-0.932055654272951 
919	-0.712784176110373 
920	-5.75914380411849E-02 
921	-0.771886992760906 
922	-1.74502899086125 
923	-2.19088385706372 
924	-1.64077754672828 
925	-1.41177709239182 
926	-1.7530101979168 
927	-2.26165277252496 
928	-1.04422981015735 
929	-1.38911673556538 
930	-2.80763754555911 
931	-2.10621471382635 
932	-1.53902494199341 
933	-1.42611399545294 
934	-1.47413450904347 
935	-0.446011200267244 
936	-0.92457053227401 
937	-1.73372996532506 
938	 0.563012207044831 
939	-1.01062970090428 
940	-2.09433363696068 
941	 0.148109508828141 
942	-1.65738112611634 
943	-2.40532554899706 
944	-2.02149405050936 
945	-3.30808077690016 
946	-2.66542694352484 
947	-1.32991645826819 
948	-0.768118163325598 
949	-1.19153498356274 
950	-1.24728286073471 
951	-1.62796418738948 
952	-3.67517842272436 
953	-3.13040349941661 
954	-1.68799608354293 
955	-0.917122006626026 
956	-0.37965212000211 
957	-0.877133445044205 
958	-1.36808777619286 
959	-0.460526872009366 
960	-0.854246485656089 
961	-1.3270789341378 
962	-1.27238446104117 
963	-1.75603092014864 
964	-1.17844806189282 
965	 0.247277150902249 
966	-2.21704006774038 
967	-5.50703634331402 
968	-7.84603850282635 
969	-8.98068576157189 
970	-9.17216691136822 
971	-8.52931358870929 
972	-5.50260049991993 
973	-4.67396142964476 
974	-4.90608878660611 
975	-3.23280399124496 
976	-1.50805152774953 
977	 0.413084409450546 
978	 4.67651075949353 
979	 5.54577493240935 
980	 4.38671451178605 
981	 4.18541803990651 
982	 2.72661218228555 
983	 0.24888047566557 
984	-1.37158972808773 
985	-2.56398877899987 
986	-3.70675590665402 
987	-4.53011439497599 
988	-3.69902549426786 
989	-2.61349315948672 
990	-1.79265137955709 
991	 1.04316086854344 
992	 1.32412332811475 
993	-0.307276849691407 
994	 0.116100440243446 
995	-0.193560619600854 
996	-0.507951681786046 
997	 1.46351928413873 
998	 4.06351344038729 
999	 5.53054373240366 
1000	 4.74516815459122 
1001	 0.6221430140819 
1002	-4.41704545000803 
1003	-8.1481490233376 
1004	-7.9594182300301 
1005	-6.18954385920942 
1006	 3.06786061649649 
1007	 4.08990053076906 
1008	 2.8146661044974 
1009	-0.744021525352711 
1010	-3.24759424712233 
1011	-4.99149237746587 
1012	-4.09857889096228 
1013	-0.797882586811444 
1014	-2.7556775932551 
1015	-4.67699188041428 
1016	-2.11998212649775 
1017	-2.36529437777872 
1018	-3.40601838717561 
1019	-2.0910072798305 
1020	-0.640262517755395 
1021	-1.04180461379004 
1022	-1.99338753396606 
1023	-1.49359788556038 
1024	-0.892566350215806 
1025	-2.62029535496761 
1026	-3.42423678328654 
1027	-1.21161086940081 
1028	 0.5641596454096 
1029	 1.45651054076711 
1030	 2.9436461029258 
1031	 3.8293123628878 
1032	 0.55790504406986 
1033	-2.40255466228276 
1034	-1.20756502209948 
1035	 9.45758218307893E-02 
1036	 3.11975940226017 
1037	 4.48627639145843 
1038	 1.49653484078112 
1039	 0.531366719754624 
1040	-0.470782807651987 
1041	-2.27765361319624 
1042	-3.15812784511219 
1043	-2.83005667155946 
1044	-2.47673413259216 
1045	-4.81676629610941 
1046	-6.1869345170919 
1047	-4.32586093507478 
1048	-6.48922550668514 
1049	-7.3934564371087 
1050	-5.63235156157546 
1051	-8.68435211283039 
1052	-10.5732382562071 
1053	-9.78819881238653 
1054	-7.43351233915226 
1055	-3.5574161792558 
1056	-1.02533905761543 
1057	-0.122153044195546 
1058	-1.67273379665637 
1059	-3.03150779692405 
1060	-5.46836712020216 
1061	-6.67756913728835 
1062	-7.70796549207952 
1063	-8.6290535970015 
1064	-9.17791547687449 
1065	-9.94578326727618 
1066	-10.1064386457754 
1067	-8.50116293673324 
1068	-6.70797511822163 
1069	-6.2544792234203 
1070	-3.50719337828762 
1071	 5.38920771035414E-02 
1072	 1.93992174897266 
1073	 4.03579555299818 
1074	 4.80996858667585 
1075	 3.13200550323732 
1076	 1.80273828664522 
1077	 8.03027751164898E-02 
1078	-0.719399955626162 
1079	-2.79372914870981 
1080	-3.60556406973613 
1081	-2.35920345974695 
1082	-1.79647557887911 
1083	-1.3224741903821 
1084	-0.248350697692395 
1085	 0.126613715089139 
1086	-1.84378155207487 
1087	-3.61656861380376 
1088	-3.90240724992505 
1089	-4.27317265025867 
1090	-4.85899165912719 
1091	-5.34523001315717 
1092	-5.73460075264447 
1093	-7.15738102532419 
1094	-10.0633371134532 
1095	-9.68550121349828 
1096	-8.81459429429103 
1097	-8.09794344032921 
1098	-4.56253255781038 
1099	-2.78176198953106 
1100	-2.05470810172445 
1101	-1.04588667666765 
1102	 1.64806664943563 
1103	 1.47083048463689 
1104	-0.505929766953307 
1105	-4.35446475895822 
1106	-7.53934517723834 
1107	-10.2877667886613 
1108	-9.05425563988806 
1109	-7.6044933953207 
1110	-5.81168888533886 
1111	-2.0497829288969 
1112	-0.241235448577407 
1113	 1.83398155753099 
1114	 1.56627423007291 
1115	-1.78974659865141 
1116	-2.23620994564564 
1117	-3.12733531438475 
1118	-2.80495266048423 
1119	 0.793657607497961 
1120	 1.69700561075764 
1121	 2.05600742993934 
1122	 1.23341659401789 
1123	-1.82985849367819 
1124	-3.77712459542796 
1125	-5.97538174741255 
1126	-8.65765954175271 
1127	-9.82330000043186 
1128	-9.66302606073559 
1129	-10.4929550892881 
1130	-11.2104958909851 
1131	-11.767642012526 
1132	-13.3805250229868 
1133	-12.5060641854315 
1134	-9.65510926121017 
1135	-8.13171679517769 
1136	-4.70659007102849 
1137	-4.11763324505199 
1138	-6.08185146210247 
1139	-6.88530290961967 
1140	-8.71583933655432 
1141	-9.72158824056045 
1142	-10.5071123465056 
1143	-10.4511746679589 
1144	-11.1854157672544 
1145	-9.44746506692372 
1146	-4.12030157411565 
1147	-0.675238266211428 
1148	 2.73327422174128 
1149	 8.22496054022369 
1150	 9.05923997414012 
1151	 6.36158495981266 
1152	 6.21583922471165 
1153	 5.23092761185373 
1154	 4.23473554234213 
1155	 4.75446109923811 
1156	 3.17459643241152 
1157	-0.971775325579037 
1158	-3.02527932860277 
1159	-4.78894960051525 
1160	-6.30232035212794 
1161	-8.00475234180356 
1162	-8.01473897654606 
1163	-6.62423168119766 
1164	-5.64299577028128 
1165	-2.33308658540611 
1166	-1.02438578495706 
1167	-1.82400106635537 
1168	-1.68122532049742 
1169	-0.360761508525095 
1170	-2.05788961333089 
1171	-2.01547075150044 
1172	-1.02779329651504 
1173	-1.44071616297493 
1174	-1.94990594579405 
1175	-3.08341091638779 
1176	-5.98053019080125 
1177	-6.40146710263014 
1178	-6.36159160076944 
1179	-6.23025207222106 
1180	-4.28714001193518 
1181	-2.96738149098002 
1182	-2.05820735035356 
1183	-1.37799141710651 
1184	-0.508829662053959 
1185	-0.022362274627707 
1186	 7.12089740267299E-02 
1187	 0.208280972004014 
1188	 1.06593043562564 
1189	 0.72320048975892 
1190	-8.40001808096511E-02 
1191	-2.96425812838491 
1192	-3.66803855486677 
1193	-4.57997725570831 
1194	-6.21613653736799 
1195	-5.17741081600635 
1196	-5.12316500070765 
1197	-5.83577589690645 
1198	-5.4320482137505 
1199	-3.23044717657397 
1200	-3.39692643328372 
1201	-5.38464280255393 
1202	-5.83882400419454 
1203	-7.07891493853439 
1204	-6.76221552478715 
1205	-4.01678597227649 
1206	-2.15828631211284 
1207	 0.601217072962264 
1208	 0.949306027691681 
1209	-0.827679319364479 
1210	-1.10762177802278 
1211	-3.09364904255025 
1212	-2.46948616024485 
1213	-0.568747021939904 
1214	 1.84366361539195 
1215	 4.98938275535841 
1216	 4.09016331316558 
1217	 3.04003677719374 
1218	 2.03028718122669 
1219	-0.531120063825036 
1220	-0.838006551628424 
1221	-1.71082688289541 
1222	-2.1985502419476 
1223	-2.47298713361486 
1224	-3.37152469289346 
1225	-2.70842042305355 
1226	 0.402987048054822 
1227	 1.20374339278956 
1228	 1.35889420392996 
1229	 1.80660450418292 
1230	 1.18004733647051 
1231	 0.369447177264183 
1232	 0.592915136656549 
1233	-0.2997074940916 
1234	-3.56851351375805 
1235	-4.51583098299713 
1236	-5.57663258732875 
1237	-4.54641183844728 
1238	-1.01007003537421 
1239	 1.74737211984947 
1240	 3.33078571532897 
1241	 2.60584714278717 
1242	-2.49568138499097 
1243	-4.54336419607337 
1244	-3.78347311525143 
1245	-4.31215083548988 
1246	-3.19274136064123 
1247	-2.61251795447606 
1248	-2.89379551928779 
1249	-2.95229739478181 
1250	-3.01833325501336 
1251	-2.30313189855306 
1252	-2.16708489224094 
1253	-3.28498196902474 
1254	-3.36754475894632 
1255	-1.11777384051121 
1256	-2.35041381892551 
1257	-6.32789425729105 
1258	-6.42658036767674 
1259	-7.58514511159984 
1260	-7.80829995159291 
1261	-4.42746665966988 
1262	-2.87421087564982 
1263	-2.06460683505929 
1264	-1.07249495749478 
1265	-1.91455762167259 
1266	-3.03237516934704 
1267	-6.02909806508391 
1268	-8.5130132571083 
1269	-6.75934713682122 
1270	-4.13244271646675 
1271	-4.97103293562615 
1272	-2.0601873371024 
1273	-0.173898904677724 
1274	-3.19702510567401 
1275	-1.77409951082654 
1276	-2.69800353128344E-02 
1277	-2.7406127769911 
1278	-3.20473247008411 
1279	-4.17543257190585 
1280	-7.39992556139376 
1281	-8.93125675460507 
1282	-9.63924145533286 
1283	-8.98245358570269 
1284	-6.45770010169982 
1285	-5.3914630940386 
1286	-3.53483436392766 
1287	-1.38769445038978 
1288	 0.669435576881756 
1289	 0.716773983272563 
1290	 1.85770312302283 
1291	 1.58548400961494 
1292	 0.537605050324609 
1293	 3.28077051054746 
1294	 7.69715471780099 
1295	 9.65123326174798 
1296	 6.7557763388753 
1297	 4.01619275539216 
1298	 2.08213345843975 
1299	-0.501759878003776 
1300	 1.32855934502732 
1301	 3.36298014210412 
1302	 1.09956948010416 
1303	 0.788261940104862 
1304	 2.04112659571186 
1305	 0.430002463604586 
1306	-1.23855383165629 
1307	-0.683736657955801 
1308	-1.21608418076923 
1309	-3.25647053597138 
1310	-3.05397305871446 
1311	-4.76736836717655 
1312	-5.78524565224631 
1313	-6.87226088428624 
1314	-7.18545183754056 
1315	-5.97566597073834 
1316	-6.02527899841637 
1317	-7.81272192179628 
1318	-7.99594647475318 
1319	-7.74214131294812 
1320	-7.90396427336404 
1321	-6.03883614102186 
1322	-4.45022159373096 
1323	-5.26139637759358 
1324	-5.19238956969683 
1325	-5.67751990127212 
1326	-6.5289414060263 
1327	-3.5073348128409 
1328	-0.853961698451034 
1329	 0.712653464864482 
1330	 3.16058011306093 
1331	 3.75779290139221 
1332	 3.42691643391878 
1333	 2.91392957080276 
1334	 3.30975810214033 
1335	 3.72794243327343 
1336	 4.42347700105032 
1337	 4.99614307773051 
1338	 2.2095178504442 
1339	-1.05381905582598 
1340	-4.89153107592795 
1341	-8.72307844127713 
1342	-8.52739133711295 
1343	-7.76517555404899 
1344	-5.71511374734484 
1345	-2.23317987816799 
1346	-1.17388347212629 
1347	-0.492508145696774 
1348	-1.19398543902715 
1349	-0.875004470538081 
1350	 1.35056320393894E-02 
1351	-0.168724827155313 
1352	 0.660281244728185 
1353	 1.10648736361486 
1354	 0.417270403099745 
1355	-2.5563875200281 
1356	-2.82340495079351 
1357	-2.8744479667455 
1358	-3.49136387644024 
1359	-2.27496318796659 
1360	 1.78863327509557 
1361	 1.20765596564323 
1362	-1.74950382298655 
1363	-0.307230598294751 
1364	-2.54217492765117 
1365	-4.51513958921716 
1366	-2.24694166620495 
1367	-3.69328974440889 
1368	-4.24130722631183 
1369	-2.12819098396685 
1370	-1.72405664493765 
1371	-0.647738878829476 
1372	 2.53454387273371 
1373	 4.01162579855372 
1374	 5.34435496775926 
1375	 6.55860538780224 
1376	 3.89405203228691 
1377	 2.04980954575897 
1378	-0.250771106327772 
1379	-1.86004122466713 
1380	-0.289158790990386 
1381	-1.16660211456436 
1382	-2.67619933303791 
1383	-4.98875844840709 
1384	-10.4595973950569 
1385	-13.9975116862284 
1386	-12.1333992716519 
1387	-8.87292383026525 
1388	-5.75207381633027 
1389	-2.63512391452503 
1390	-1.80178928733622 
1391	-5.99681745944176 
1392	-5.98037372382396 
1393	-4.8737350232895 
1394	-4.97311441370404 
1395	-4.19534014633743 
1396	-2.9587143370965 
1397	-3.41579733399487 
1398	-2.53068425859089 
1399	-3.0678546513799 
1400	-4.88929367041126 
1401	-6.5675033068506 
1402	-7.744947344676 
1403	-6.42294837768715 
1404	-4.41001618276133 
1405	-3.28964719155346 
1406	-1.61192618589451 
1407	 0.440042186360614 
1408	 1.96875166882729 
1409	 3.87918787046646 
1410	 4.29264162100092 
1411	 2.57299154362764 
1412	 0.622420137152827 
1413	-0.908700898976592 
1414	-3.27759971904536 
1415	-2.98244128907658 
1416	-2.580566972139 
1417	-6.42593780330328 
1418	-9.39932671615467 
1419	-11.8436979733117 
1420	-10.7994475858892 
1421	-6.47557985823572 
1422	-1.03706913007424 
1423	 1.98496926906633 
1424	-0.328819319266809 
1425	-1.74435094279073 
1426	-2.88652011112795 
1427	-3.34033220549193 
1428	-1.88512089287917 
1429	-0.979746899061452 
1430	-0.963346698489002 
1431	-1.73125828756948 
1432	-1.76409547042697 
1433	-1.53784849128155 
1434	-3.42701311638177 
1435	-2.97083955112968 
1436	-5.61036962215667E-02 
1437	 0.620350044722992 
1438	 1.9302197839066 
1439	 2.93215222111191 
1440	 1.52511258406343 
1441	 0.293625105455873 
1442	-1.24951496738432 
1443	-2.9212181364727 
1444	-3.73155120113696 
1445	-3.75335730811165 
1446	-1.17398200128254 
1447	-0.820261407447255 
1448	-1.89475038259495 
1449	-2.2806923461615 
1450	-3.60085615591027 
1451	-5.20973813774745 
1452	-7.14196044173247 
1453	-5.12681535174433 
1454	-5.81335416721159 
1455	-6.66658606078059 
1456	-3.92197490299268 
1457	-4.94117602858535 
1458	-4.83475508501016 
1459	-4.15418807145763 
1460	-6.63032086940862 
1461	-6.65367749379565 
1462	-7.73066864955456 
1463	-7.11272116087416 
1464	-4.75398188722415 
1465	-4.06508321479307 
1466	-1.88818663484606 
1467	-2.05290105469262 
1468	-1.56424765712526 
1469	-1.02215248322604 
1470	-2.85956226220737 
1471	-1.4332959364356 
1472	 0.283954703753853 
1473	 1.21963728567232 
1474	 3.79490426174002 
1475	 3.88129114461157 
1476	 1.34050193544684 
1477	-0.597910961782979 
1478	-2.54580645818596 
1479	-4.17754529508351 
1480	-5.07090936168574 
1481	-5.43209392349169 
1482	-7.07119316235061 
1483	-7.2183788278572 
1484	-5.25748492671666 
1485	-3.79109224652948 
1486	-0.783923812345295 
1487	 1.09149456088996 
1488	 1.94194876531475 
1489	 1.36292405953285 
1490	 0.681265873623263 
1491	 0.113804460951978 
1492	-2.42302059305222 
1493	-0.455416186295916 
1494	 1.31599133349773 
1495	 0.538371419647578 
1496	 1.98844698809734 
1497	-6.08617329522114E-02 
1498	-2.51364813181851 
1499	-1.97833782800424 
1500	-3.19992669837246 
1501	-1.61668727618237 
1502	 1.60217352601124 
1503	 2.10406688286024 
1504	 3.13002831830531 
1505	 1.57223277954149 
1506	-1.09254152869415 
1507	 0.217973255133488 
1508	-0.35684529356443 
1509	-1.19511823040026 
1510	 3.26243256990117E-02 
1511	-4.75797169594328 
1512	-9.64411404462018 
1513	-9.34586361785061 
1514	-9.72781982869099 
1515	-8.22742770894669 
1516	-5.87453560533877 
1517	-5.06108869355417 
1518	-2.27108930369515 
1519	-0.615526750242276 
1520	 1.03077319113059 
1521	 2.94924929739247 
1522	 0.779410667342752 
1523	-0.967842074818115 
1524	-1.71567232535955E-02 
1525	 0.836742870913365 
1526	 1.89049212607417 
1527	 1.87404844444793 
1528	 1.63160423337902 
1529	 1.64422677265112 
1530	 2.97666013959582E-02 
1531	 6.68377249857299E-02 
1532	-3.78703443891115 
1533	-8.34071607061705 
1534	-6.75368337805418 
1535	-6.32045819950937 
1536	-4.79525924335594 
1537	-3.38963771588155 
1538	-4.62913036491177 
1539	-5.33359394063319 
1540	-7.22261442314209 
1541	-7.49072614442464 
1542	-5.02239809698193 
1543	-4.36188570829024 
1544	-1.76749219783926 
1545	 0.594925613736394 
1546	-3.26978519984262 
1547	-5.36740021135168 
1548	-6.95887954581192 
1549	-8.44068736783608 
1550	-6.76466163536346 
1551	-7.40981385786491 
1552	-7.38878314698513 
1553	-5.8369624294669 
1554	-5.9025843934195 
1555	-5.08437921164597 
1556	-3.2778093415797 
1557	-4.65517354262265 
1558	-4.51106495539652 
1559	-2.14239599161302 
1560	-3.27238309280828 
1561	-4.09381747906793 
1562	-5.45671947720045 
1563	-8.46294463788008 
1564	-8.98777830097919 
1565	-6.5288057966424 
1566	-3.54026994606615 
1567	-1.40654433357856 
1568	-0.803380804915179 
1569	-1.99226156122234 
1570	-2.67382477610818 
1571	-3.68123184420525 
1572	-2.80836082144625 
1573	 0.296465187029241 
1574	 0.0501622046802 
1575	 0.122861078858097 
1576	 1.85137463404683 
1577	-0.088726911171565 
1578	-1.83659817518968 
1579	-1.72279424644749 
1580	-3.03272412849695 
1581	-3.7146758756636 
1582	-2.96297873719923 
1583	 0.286951272219943 
1584	 3.82748131495468 
1585	 5.46556764927597 
1586	 6.51636531180067 
1587	 3.75515287712088 
1588	 0.335189816934115 
1589	 0.731038766867407 
1590	-0.26579973621024 
1591	 0.975928517097447 
1592	 4.67558163331799 
1593	 5.20761334905501 
1594	 7.35262092132379 
1595	 7.25255725899652 
1596	 3.94354447552417 
1597	 1.84675942645905 
1598	-0.309469276785802 
1599	-1.56138314369012 
1600	-1.30961444786301 
1601	-2.95345288356725 
1602	-5.82277683625892 
1603	-5.37055296287342 
1604	-4.40561717234047 
1605	-2.8262088203477 
1606	-1.53543385774031 
1607	-2.43922129394404 
1608	-5.04756077261413 
1609	-8.3655720061034 
1610	-6.58479950893964 
1611	-4.99758047958991 
1612	-4.31617582781874 
1613	-2.89797519587697 
1614	-8.81316940995972 
1615	-13.750235307557 
1616	-13.5562562760474 
1617	-12.9337268703915 
1618	-9.26465616220493 
1619	-4.39360428284353 
1620	-2.04628695249396 
1621	-3.12940376378451 
1622	-3.1057392307146 
1623	-2.4323981131079 
1624	-3.59987025589674 
1625	-2.00327588751629 
1626	-8.33047493766443E-02 
1627	 0.758424885063763 
1628	 1.9355609034134 
1629	 1.41905535305071 
1630	 0.206726103697973 
1631	-1.13555042178166 
1632	-0.53602809736852 
1633	-0.112253917789314 
1634	 0.946172272832489 
1635	 1.3924638747747 
1636	-0.104745337761853 
1637	 0.190079162483288 
1638	 2.37027209274515 
1639	 2.35276065456698 
1640	 3.13849678563546 
1641	 1.75913904657794 
1642	-4.18393208280818 
1643	-6.32515450253666 
1644	-9.2032809934726 
1645	-8.92469809772147 
1646	-2.9651333520762 
1647	-0.476339454554115 
1648	 3.38708553638321 
1649	 3.92564938592005 
1650	-0.158667630127738 
1651	-1.45964068469316 
1652	-4.27447224546427 
1653	-4.26503890891707 
1654	 0.758304485319613 
1655	 0.45803868814079 
1656	-0.895226188829071 
1657	-2.88313384057657 
1658	-10.0813840157949 
1659	-12.2533152302733 
1660	-12.7260806283731 
1661	-11.7862794811092 
1662	-7.13643907896656 
1663	-5.64755252991991 
1664	-4.46432588498557 
1665	-2.92600710941796 
1666	-2.37861085575135 
1667	-1.4326347482864 
1668	 1.5060772802889 
1669	 0.901281945890184 
1670	-3.33784656520738 
1671	-3.74937147051967 
1672	-4.28547099598182 
1673	-3.92694613991471 
1674	-0.251087157358736 
1675	 0.174607612377328 
1676	-0.894220733784773 
1677	-1.83013614655642 
1678	-3.83912888785038 
1679	-4.85287313190517 
1680	-6.51502974040065 
1681	-5.51970273353281 
1682	-2.9936327367838 
1683	 0.637802557777009 
1684	 4.26653746843405 
1685	 4.72925673658078 
1686	 4.18795925107522 
1687	 1.36334541251992 
1688	 0.307471047429451 
1689	 0.772598848727095 
1690	 1.01999349228086 
1691	 3.77569722485364 
1692	 3.4042479500202 
1693	-0.76114297365853 
1694	-1.93707754573391 
1695	-2.77858527970234 
1696	-4.30073383527777 
1697	-4.18218219806951 
1698	-4.27457341325411 
1699	-6.23649414754739 
1700	-6.94337084922624 
1701	-6.16403985521989 
1702	-5.22740348280898 
1703	-4.15370451201712 
1704	-3.00646562085743 
1705	-0.481814584419767 
1706	 0.523818833091549 
1707	 0.377244865547068 
1708	 0.638953790456102 
1709	 0.167100452101067 
1710	 0.665769094671013 
1711	 3.07827498722892 
1712	 2.09618122904871 
1713	-0.433403769000167 
1714	-2.40772145185794 
1715	-8.13008045396875 
1716	-7.9056885086794 
1717	-3.44357813395607 
1718	-1.84927072734523 
1719	 1.91301127979108 
1720	 2.22330380846641 
1721	-0.543341398696628 
1722	-1.17507642298891 
1723	-2.10479475183905 
1724	-2.65651260680007 
1725	-2.8689878989692 
1726	-4.66545582777257 
1727	-1.88942844729279 
1728	 1.4265918176845 
1729	 3.3830554258574 
1730	 5.04204212298141 
1731	 5.25009037370707 
1732	 5.03854073300076 
1733	 4.28738083253508 
1734	 2.27492718583184 
1735	 1.98891735597153 
1736	 2.21557748192219 
1737	 2.14478852071514 
1738	 4.28110909898996 
1739	 4.52214559375585 
1740	 3.15134252437648 
1741	 1.69255266984788 
1742	-2.55069899782241 
1743	-3.0592828214934 
1744	-1.13402152814628 
1745	-0.877448450962724 
1746	 1.63653979889394 
1747	 2.88191577235369 
1748	 1.94987413108036 
1749	 1.40318802778338 
1750	 2.19601731183609 
1751	-0.198981198245939 
1752	-6.39862375566931 
1753	-6.89780829132085 
1754	-6.19386799060085 
1755	-4.54473586687673 
1756	 0.491503483648466 
1757	 5.18143049342273 
1758	 11.2296856360158 
1759	 12.2747554941694 
1760	 10.2183124583588 
1761	 5.84070230260693 
1762	 0.308076748167074 
1763	-2.41088639387422 
1764	-3.40445267380698 
1765	-0.912567083330758 
1766	 0.485484740041913 
1767	 4.27201885061669 
1768	 2.48567098819514 
1769	-5.73769947204016 
1770	-2.82431369549219 
1771	-3.85237407570168 
1772	-7.57252777187814 
1773	-8.49307243585501 
1774	-7.40683164800451 
1775	-5.29732629275353 
1776	 2.31342272328079 
1777	 7.40310984997325 
1778	 19.8451821126718 
1779	 12.0961261695231 
1780	 2.82789239369586 
1781	-3.01195695713639 
1782	-9.52991404287465 
1783	-13.1119311049384 
1784	-9.18083294705568 
1785	 8.04202290422665 
1786	 12.3672376311717 
1787	 10.5174984795138 
1788	 13.4374559786313 
1789	 0.112046316056393 
1790	-15.2055582078619 
1791	-20.3782093292786 
1792	-24.9160288605315 
1793	-17.2933342886623 
1794	-5.44790176176234 
1795	 14.9246237915586 
1796	 27.0981987042989 
1797	 39.0156897111405 
1798	 42.0257323133872 
1799	 26.895576073945 
1800	 10.8988103301068 
1801	 7.39651858698005 
1802	 7.77693393425454 
1803	 2.65260734501363 
1804	-2.90779842591667 
1805	-8.39988899310543 
1806	-22.7553644116179 
1807	-26.1317789318117 
1808	-22.3131652487737 
1809	-4.30650104492079 
1810	 6.13969402504079 
1811	 12.6892133796035 
1812	 13.1957592979274 
1813	 7.58864721944747 
1814	-2.62234977072137 
1815	-29.5451900634759 
1816	-40.5429989881521 
1817	-51.1728843486472 
1818	-55.2146709708505 
1819	-51.707045043496 
1820	-35.1459539178201 
1821	-25.6578945500414 
1822	-13.4839645077833 
1823	-7.45391475655093 
1824	 0.840648020528602 
1825	 1.0560219646851 
1826	-15.5806196016209 
1827	-18.7741125524583 
1828	-25.1981590891136 
1829	-20.7418796618636 
1830	-11.8355212068406 
1831	 12.6035027208529 
1832	 24.2215314133046 
1833	 40.3828768863867 
1834	 45.4883881921666 
1835	 45.7223031045304 
1836	 39.229428532294 
1837	 16.142783327132 
1838	 2.84070056669266 
1839	-19.2956168044664 
1840	-26.7148099169238 
1841	-31.9661138893351 
1842	-26.9005294193581 
1843	-26.0268632578312 
1844	-25.5680356891474 
1845	-20.0062790211576 
1846	-1.01512378853559 
1847	 1.19622021345425 
1848	-4.24261239636594 
1849	-7.48358159706834 
1850	-11.5967405590738 
1851	-16.1214351900376 
1852	-12.3135833588869 
1853	 13.2251172761938 
1854	 19.7525792864217 
1855	 18.8238236527364 
1856	 17.7330868844772 
1857	 11.0139115009296 
1858	 5.500556112951 
1859	 5.51229181388005 
1860	-0.815348206142544 
1861	-7.77786529037883 
1862	-12.4577877660651 
1863	-10.7678217012279 
1864	-8.03225017304483 
1865	-1.91943280976367 
1866	 21.6145770429196 
1867	 26.2339056819935 
1868	 20.5592729802267 
1869	 16.8451411698123 
1870	 7.74457959673883 
1871	-7.02679025945472 
1872	-15.2920400967885 
1873	-24.0440121215874 
1874	-35.8913293873033 
1875	-40.7605540580242 
1876	-38.2407888719949 
1877	-28.6573386128937 
1878	-16.9928258240398 
1879	-6.62354301250346 
1880	 4.24863457922124 
1881	 15.3959837770501 
1882	 17.8981711769592 
1883	 20.9321422006916 
1884	 25.5015020750262 
1885	 23.865185012263 
1886	 19.991259643263 
1887	 14.11943364111 
1888	 6.97660201539514 
1889	-0.250298262667285 
1890	-5.48793001271021 
1891	-4.42114343057827 
1892	-0.592241277929048 
1893	 8.28522979581921 
1894	 13.5688339888024 
1895	 8.93810467558299 
1896	 13.9002215181479 
1897	 12.653016779431 
1898	 4.80409439979103 
1899	-0.114707886345321 
1900	-1.87047680894249 
1901	-15.7742764304282 
1902	-21.5416783514615 
1903	-23.6624466790971 
1904	-23.6167352761944 
1905	-14.3523937548353 
1906	-17.632288797203 
1907	-14.1297102815701 
1908	-14.7934321668854 
1909	-25.2719041890804 
1910	-28.6809773794308 
1911	-31.4637080210862 
1912	-29.6538310486176 
1913	-25.2153558332381 
1914	-10.8234620289692 
1915	-3.07132200705648 
1916	-2.06906867432777 
1917	-9.22054406978137 
1918	-16.7055922819648 
1919	-16.6061376730849 
1920	-12.2145568649451 
1921	-8.06789093794985 
1922	 3.73173805100978 
1923	 8.55117940586798 
1924	 14.6739413542675 
1925	 15.7829375483417 
1926	 15.2577632223272 
1927	 3.45521429218942 
1928	-4.78802878129172 
1929	-16.8834077599347 
1930	-20.1585705769949 
1931	-16.3118674449638 
1932	-15.5463415725036 
1933	-8.14368253351776 
1934	-9.79554839189136 
1935	-22.7289815290869 
1936	-24.5211700821066 
1937	-25.3360008820596 
1938	-24.4776543311794 
1939	-15.8716272222881 
1940	-4.96906861535763 
1941	-3.21305076987347 
1942	-7.29985625835204 
1943	-7.76920352518943 
1944	-8.0903996331926 
1945	-14.325324303578 
1946	-25.6371946711391 
1947	-30.5274134850829 
1948	-40.0735048185672 
1949	-44.4359670891287 
1950	-42.6113755176018 
1951	-38.5586053900619 
1952	-34.3089279927125 
1953	-25.6321987216892 
1954	-16.4447063416035 
1955	 1.97619595500916 
1956	 8.34146588048339 
1957	 16.0084379480918 
1958	 9.97196634610789 
1959	-15.4182781665719 
1960	-24.5638410443933 
1961	-39.8400472858687 
1962	-45.1550334123629 
1963	-34.5932067525727 
1964	-28.254231533307 
1965	-24.2716234475485 
1966	-11.1603405849282 
1967	-8.04128559442815 
1968	-7.49653782084467 
1969	-4.7701100314877 
1970	-6.39168944759594 
1971	-5.10582105044543 
1972	 3.86239306102598 
1973	 3.49494346658529 
1974	-6.95127142199759 
1975	-8.71873579380945 
1976	-9.73454928493814 
1977	-10.314262943991 
1978	-5.7408543507867 
1979	-6.15247834410579E-02 
1980	 0.369670349292375 
1981	-4.97477339325705 
1982	-5.54572823249422 
1983	-0.703258614256328 
1984	-6.89898250726561 
1985	-23.3354749535596 
1986	-27.2201744906701 
1987	-39.6637120511968 
1988	-37.6890101185044 
1989	-9.77088644616551 
1990	 2.15563980087397 
1991	 13.9870097198182 
1992	 22.0223404644023 
1993	 15.9329122035821 
1994	 9.6541529832352 
1995	 4.04215015156999 
1996	-7.26416214272351 
1997	-11.2742768032559 
1998	-11.8203867491118 
1999	-14.3886384472813 
2000	-11.8220239357663 
2001	-13.4435111973849 
2002	-19.0242833713747 
2003	-21.9091628898583 
2004	-22.7173838638271 
2005	-31.6938458645793 
2006	-29.4508056753852 
2007	-29.2638325379648 
2008	-31.7883296175416 
2009	-27.7762892933782 
2010	-20.6261066225772 
2011	-9.04992101499593 
2012	-0.641686564375141 
2013	 17.00596652204 
2014	 20.6942511747724 
2015	 12.9903845195411 
2016	 7.81761236143934 
2017	-7.96481009690075 
2018	-12.2361259090215 
2019	-12.7281732558583 
2020	-6.98591731280856 
2021	 1.78975479231284 
2022	 9.11762671968362 
2023	 8.77799367771338 
2024	 3.98229209678952 
2025	-1.02780027545393 
2026	-13.4341278454779 
2027	-19.1309497160806 
2028	-25.8400166373556 
2029	-23.1882045485362 
2030	-13.029612131587 
2031	-4.79551869359787 
2032	 15.1434133704159 
2033	 21.4655079257004 
2034	 11.0342557610527 
2035	 5.10144469291538 
2036	-0.907094952903699 
2037	-4.64859817240155 
2038	-12.1931344700286 
2039	-15.5175393026188 
2040	-13.6851719625089 
2041	-19.0347254700158 
2042	-11.1684664017727 
2043	 18.6674599475573 
2044	 30.2554990647287 
2045	 43.5676531178426 
2046	 49.5838551669333 
2047	 45.8414554682349 
2048	 41.8387215751529 
2049	 39.1158357056735 
2050	 16.4317543021167 
2051	-1.7696544004806 
2052	-17.1029745581506 
2053	-28.9538690801042 
2054	-24.5671535471106 
2055	-16.5450692597037 
2056	-5.15657827547548 
2057	 1.12564940018445 
2058	-3.39541400744995 
2059	-2.47561944018718 
2060	-1.85526743554171 
2061	-2.86158877942282 
2062	-2.3402164066285 
2063	-0.590187770961301 
2064	 2.02112776456721 
2065	-5.28687046058756 
2066	-4.04985870925052 
2067	-11.6764318680569 
2068	-24.2248535876998 
2069	-22.6807165877806 
2070	-19.614322295505 
2071	-3.54175630597274 
2072	 12.6352819754062 
2073	 12.1812578487218 
2074	 16.6271172088498 
2075	 9.1189730305532 
2076	 5.5481598770326 
2077	 5.42086188153879 
2078	 2.2136809581349 
2079	-5.15042325097768 
2080	-5.76682110156178 
2081	-7.3716163526409 
2082	-0.697111664246753 
2083	 2.50838948083094 
2084	-2.97490160820421 
2085	-5.505758058189 
2086	-13.0648538904118 
2087	-6.8989739063928 
2088	 4.69198118768883E-02 
2089	 0.344251785848694 
2090	-6.90446465855 
2091	-15.9520067108648 
2092	-21.0651357297145 
2093	-26.0242848047146 
2094	-22.8944278155659 
2095	-25.8305682901371 
2096	-37.4798837407143 
2097	-39.1733669811672 
2098	-37.2005680736716 
2099	-36.501837060329 
2100	-30.5517652282911 
2101	-24.4214952400945 
2102	-25.437936133652 
2103	-27.1537256388634 
2104	-22.8184628812904 
2105	-25.5142114963097 
2106	-25.8729026289829 
2107	-26.9743670305982 
2108	-36.9591493364154 
2109	-37.3694760998868 
2110	-30.1656190758061 
2111	-24.3049617581431 
2112	-11.4700259592974 
2113	 3.86737901624453 
2114	 10.8373821346674 
2115	 15.7447515444609 
2116	 12.1761395521141 
2117	-7.04474384419678 
2118	-14.3946299720302 
2119	-23.9105122552793 
2120	-28.2024638747974 
2121	-20.1693261139704 
2122	-13.5524942236983 
2123	-14.7625597475844 
2124	-18.2641085874882 
2125	-22.7166691022969 
2126	-21.3317472062286 
2127	-21.3975794362013 
2128	-16.9072912403553 
2129	-10.6922907213078 
2130	-9.51661623502931 
2131	 6.65650111057989 
2132	 22.2930706177183 
2133	 28.9899405182458 
2134	 32.8193335685072 
2135	 28.8957837493971 
2136	 3.64459740520096 
2137	-0.172796520573954 
2138	 4.28978552769813 
2139	 6.2201886448195 
2140	 19.2213285386752 
2141	 17.5341705749123 
2142	 12.5434598955493 
2143	 8.97596886719763 
2144	 3.55338818757246 
2145	 1.74082422784968 
2146	-5.79066189254685 
2147	-18.7862438104463 
2148	-31.4386301801468 
2149	-29.5747281077042 
2150	-21.5020979022887 
2151	-15.4996650054886 
2152	-11.0387645185032 
2153	-10.3529809748548 
2154	-10.7117688747565 
2155	-5.48212275751603 
2156	 5.1824417948318 
2157	 4.52581956325811 
2158	 2.7182966063116 
2159	-5.90816164107701 
2160	-8.62904416119937 
2161	-13.0378237994818 
2162	-10.6910689871012 
2163	-0.796225788987851 
2164	 3.94985352687146 
2165	 6.15843417881691 
2166	 12.013883025159 
2167	 12.880173892293 
2168	 11.1614881726208 
2169	 14.324718331919 
2170	 15.6747554619128 
2171	 20.2114705661773 
2172	 28.4381110031502 
2173	 38.946275907378 
2174	 40.3246696954296 
2175	 36.5865296529061 
2176	 35.1404114482258 
2177	 11.6762633802545 
2178	 0.305469250816874 
2179	-2.98942760638213 
2180	-12.7814098508642 
2181	-1.30699076416424 
2182	 6.10797018296371 
2183	 8.12176555859883 
2184	 10.4784458093036 
2185	 3.88452314110007 
2186	-15.592306362781 
2187	-26.7589156460492 
2188	-40.9817890880492 
2189	-51.5039755823766 
2190	-53.4349539798185 
2191	-48.0354647490295 
2192	-41.8015222012711 
2193	-31.1650733475803 
2194	-11.5362365301431 
2195	 5.49973305423399 
2196	 11.7460479920363 
2197	 20.1426313671726 
2198	 19.3069850371786 
2199	 6.50254468896963 
2200	 5.54832955374566 
2201	 7.48083692870968 
2202	 5.06883647115973 
2203	 8.78105743984185 
2204	 14.8747879789471 
2205	 12.0660387905309 
2206	 9.37732238851789 
2207	 5.24513213828028 
2208	-8.14213050723011 
2209	-10.9676607082687 
2210	-6.88318065277973 
2211	 6.72506042878486 
2212	 15.3662305685149 
2213	 34.7323690116704 
2214	 40.6832075710757 
2215	 33.6274872571928 
2216	 28.0425247337365 
2217	 18.1523819541531 
2218	 10.560688828662 
2219	 1.10958573188696E-02 
2220	-2.51083958079682 
2221	-1.86925799962568 
2222	-3.26755924712164 
2223	-5.49773101703285 
2224	-1.30350762607355 
2225	 2.06725713679783 
2226	-5.15190096003588E-02 
2227	-3.92722516833615 
2228	-10.6688004596362 
2229	-19.1680909929493 
2230	-15.4680640597032 
2231	-6.75755971204365 
2232	 4.34739489881617 
2233	 22.6892211475013 
2234	 21.6824553971557 
2235	 22.6131392017425 
2236	 28.2589924835029 
2237	 17.1409688565684 
2238	 14.5098074409435 
2239	 7.96591684310053 
2240	-5.29119386987062 
2241	-14.3535772666509 
2242	-15.9031188363147 
2243	-16.3260159420971 
2244	-15.2775975634463 
2245	-12.9428665220069 
2246	-4.77120066702236 
2247	-2.70802634492801 
2248	-3.37095700449352 
2249	-0.501898355817728 
2250	 3.15349256581337 
2251	 6.73374498965698 
2252	 16.4890768560539 
2253	 18.0250502534813 
2254	 9.81661719055779 
2255	 6.35926933747647 
2256	 1.80825069200466 
2257	-3.82021053005046 
2258	-2.05158793684596 
2259	-3.13227357746083 
2260	-7.46767560520353 
2261	-1.98180510974346 
2262	-10.885691489346 
2263	-12.1805483688333 
2264	-4.51034952981626 
2265	-17.7834763551891 
2266	-20.8642221960386 
2267	-27.3918908869693 
2268	-39.5133779944978 
2269	-35.1096332665667 
2270	-26.0414687913294 
2271	-9.85638417944765 
2272	 2.00033063643126 
2273	 1.72853030929012 
2274	-9.01002308484832 
2275	-21.7391920098044 
2276	-25.0483389661188 
2277	-27.7324299252998 
2278	-25.0609237466025 
2279	-22.3864397425239 
2280	-23.703838775251 
2281	-21.7631296249838 
2282	-23.6026508683591 
2283	-22.0532391665965 
2284	-19.6142684976189 
2285	-20.4340730083157 
2286	-17.4433456970266 
2287	-6.07917475278411 
2288	-2.3427265415603 
2289	-1.38623020824932 
2290	-1.11310626220514 
2291	-10.4511522963419 
2292	-10.1350349780978 
2293	-4.67742224500877 
2294	-2.19852981717724 
2295	 7.40911430866465 
2296	 12.5499679549478 
2297	 13.6576903449104 
2298	 16.6172154446852 
2299	 17.9953753872168 
2300	 23.0968241039988 
2301	 30.9063257930386 
2302	 36.2430043415756 
2303	 46.6455273936692 
2304	 45.9840843076805 
2305	 37.2170157193062 
2306	 26.8633946037295 
2307	 8.78502063982912 
2308	-4.15661591747342 
2309	-20.4856338362072 
2310	-25.3997151421 
2311	-30.7495780941781 
2312	-39.4571316566064 
2313	-29.8877628638418 
2314	-21.1441970128019 
2315	-8.55730356054743 
2316	 11.4886122427401 
2317	 16.6904176794348 
2318	 13.3098863628111 
2319	 10.4113136333434 
2320	 6.32706063518378 
2321	-6.79242113327373 
2322	-18.5004381022111 
2323	-26.5275663066313 
2324	-37.4556233318589 
2325	-35.4309655326732 
2326	-32.6952562990263 
2327	-33.6577829974218 
2328	-28.7360090415851 
2329	-19.1895595906395 
2330	 1.23615059493073 
2331	 17.8835969172342 
2332	 24.7946272187627 
2333	 26.1912024496797 
2334	 20.6084497482606 
2335	 13.5142607223574 
2336	 8.84933159850171 
2337	 9.00807022202935 
2338	 2.70606882474215 
2339	-2.94703437342357 
2340	 4.12550664066099 
2341	 9.35152936048882 
2342	 20.3433640568226 
2343	 31.8998357371278 
2344	 30.136745194712 
2345	 23.6681898905295 
2346	 16.6935052903967 
2347	 20.0178640253307 
2348	 28.5043791852259 
2349	 35.8286791160658 
2350	 37.8595062209605 
2351	 32.8429469821216 
2352	 25.4045587748616 
2353	 14.1398208944876 
2354	 9.60894167486491 
2355	 3.88329999722557 
2356	-2.48152136369154 
2357	-1.67050911690186 
2358	 0.925154606641272 
2359	 1.60442399647367 
2360	 8.704723585988 
2361	 15.4925391613118 
2362	 9.62199952127922 
2363	 8.89877778641965 
2364	 2.94490938295455 
2365	-0.970564619744272 
2366	 9.55769620414969 
2367	 13.6850121381843 
2368	 13.8101908406159 
2369	 11.7738397095047 
2370	 3.99043866214455 
2371	-0.804487957959823 
2372	-1.69217159878785 
2373	-7.09641872835797 
2374	-20.2249115177363 
2375	-37.2566295430002 
2376	-51.5242024034142 
2377	-50.6338287069974 
2378	-42.0944319666983 
2379	-31.4053566055746 
2380	-19.336405503272 
2381	-20.6843535680836 
2382	-20.3487908965904 
2383	-19.8798970015587 
2384	-26.216812199481 
2385	-25.7449614107593 
2386	-30.6116605505181 
2387	-36.733468351803 
2388	-36.0259374452241 
2389	-26.8688362357576 
2390	-8.17647622309833 
2391	 5.99046180804065 
2392	 19.3270623263267 
2393	 20.0915633606756 
2394	 5.40946264598312 
2395	 8.36998132265822 
2396	 20.6767101952822 
2397	 29.4850239567888 
2398	 48.9907724267006 
2399	 56.3060033901084 
2400	 48.5807707845523 
2401	 43.5810683582114 
2402	 30.9875269738529 
2403	 16.7652976741542 
2404	 4.72963517910194 
2405	-9.54285471179284 
2406	-17.8899682759628 
2407	-25.3017294943917 
2408	-31.9733675312802 
2409	-36.9511755736353 
2410	-43.9885891747358 
2411	-41.5955679108404 
2412	-36.5546073046524 
2413	-29.8889753651297 
2414	-17.7333655738382 
2415	-14.7021362020184 
2416	-6.58756856348916 
2417	 14.5819084307929 
2418	 20.5171398761177 
2419	 28.2743852476732 
2420	 36.6404653995427 
2421	 29.3287904854434 
2422	 31.7787739176497 
2423	 32.1080186695885 
2424	 27.0171796765912 
2425	 25.6024086310083 
2426	 22.8958253300233 
2427	 21.0618550956661 
2428	 14.8699103607964 
2429	 9.22871403175883 
2430	 4.60741148130912 
2431	 2.16618441364057 
2432	 7.53281077053121 
2433	 1.56872599017816 
2434	-7.30860712681203 
2435	-7.32050015320052 
2436	-19.0773116718743 
2437	-22.1667094611457 
2438	-2.87601479588627 
2439	 3.67973158641351 
2440	 16.2354271996671 
2441	 31.2819932886045 
2442	 19.1039869417195 
2443	 12.5622769728179 
2444	 4.51305700660785 
2445	-7.6400980282348 
2446	-8.94359910311946 
2447	-12.8923564650375 
2448	-10.766987507014 
2449	-8.76670739036179 
2450	-6.14745077720041 
2451	-0.872796880491161 
2452	-4.49208018679267 
2453	 1.71377770602163 
2454	 7.97520463598869 
2455	 9.00743848112823 
2456	 13.6078807237289 
2457	 12.8073998789245 
2458	 1.65181592249254 
2459	-12.4256921651498 
2460	-18.1688193003211 
2461	-27.0269125935527 
2462	-17.287902647915 
2463	 2.57924211480895 
2464	 11.3122171636288 
2465	 23.7883695740668 
2466	 20.6252583502242 
2467	 7.35499214852117 
2468	-6.7767843921169 
2469	-13.2949408424913 
2470	-10.8603472858531 
2471	-6.78926472477497 
2472	-0.843711892354525 
2473	-0.92337629036753 
2474	 4.14629495818165 
2475	 9.91306791664036 
2476	 12.9059129602987 
2477	 19.3448911406678 
2478	 10.9406133715699 
2479	-6.42380323936997 
2480	-18.9346481264833 
2481	-32.2251934274542 
2482	-35.0786626911213 
2483	-29.3493218765773 
2484	-26.8705957365149 
2485	-25.0544903122438 
2486	-25.5681263452788 
2487	-26.7264092656528 
2488	-26.2626645649553 
2489	-27.2025622202242 
2490	-21.6300126795074 
2491	-4.61212884693761 
2492	 12.6321018993442 
2493	 23.4456215731056 
2494	 29.8307507480592 
2495	 21.2240330117621 
2496	 3.30739930522846 
2497	 4.77620861350665 
2498	 0.611149747725377 
2499	-6.57750829594684 
2500	 2.37710830144402 
