Wavelength	Reference_BlackPLA00000.asd
350	 21.0536170590827 
351	 23.0143000185841 
352	 24.7996078609521 
353	 24.1015663372126 
354	 24.1097637921758 
355	 25.4625406308117 
356	 27.5961234474254 
357	 27.6324100802687 
358	 29.0523535083804 
359	 31.4535207605893 
360	 31.2961304552317 
361	 32.6656128491806 
362	 34.1772242738359 
363	 33.9838289031762 
364	 33.5610549131286 
365	 35.3322464614064 
366	 38.247402016833 
367	 36.7447737894884 
368	 36.8999951740786 
369	 38.5764050854928 
370	 39.7491948489438 
371	 40.379162107827 
372	 41.1914552947544 
373	 42.4661409678148 
374	 43.381280258387 
375	 45.3737569490028 
376	 47.6427359453344 
377	 48.3741481544422 
378	 48.2267158806058 
379	 49.5386120488432 
380	 52.9208543882019 
381	 53.044956093273 
382	 54.9029726630262 
383	 58.765207615073 
384	 60.9072297606849 
385	 63.2177756657931 
386	 66.33007913262 
387	 70.1962722352173 
388	 72.9607947531509 
389	 75.0452937181736 
390	 77.4764028858248 
391	 82.1564878608821 
392	 87.3326351101239 
393	 92.578463132286 
394	 98.0489907612252 
395	 104.737559222653 
396	 110.341545638452 
397	 114.553475709114 
398	 123.150193103707 
399	 133.350407699405 
400	 144.124785483616 
401	 155.576770415389 
402	 166.767519516507 
403	 178.168723851133 
404	 190.778288560774 
405	 206.203294124824 
406	 222.581350818925 
407	 239.214825057632 
408	 257.175238637123 
409	 278.390619729352 
410	 301.053717782415 
411	 322.11868152984 
412	 344.972058363664 
413	 370.134192764444 
414	 397.085669981006 
415	 423.673983901184 
416	 450.738101012377 
417	 478.608425909412 
418	 507.220686128437 
419	 535.475872273363 
420	 562.94801095453 
421	 589.687966222006 
422	 616.934296928854 
423	 644.243555299995 
424	 671.497214576441 
425	 699.930938724748 
426	 724.558316400175 
427	 747.258019281471 
428	 773.343752146469 
429	 796.852311605353 
430	 818.472962284832 
431	 839.913494575347 
432	 861.971409787259 
433	 882.909478910842 
434	 902.352485256923 
435	 921.792699263175 
436	 938.561031029287 
437	 954.254880981755 
438	 971.772808803557 
439	 989.285440935882 
440	 1006.26879840562 
441	 1022.48900013244 
442	 1037.96395616645 
443	 1053.32458579709 
444	 1068.74455838788 
445	 1083.98626536302 
446	 1099.90480259413 
447	 1114.70205927365 
448	 1126.89566399391 
449	 1142.20647274121 
450	 1157.00749380801 
451	 1169.23079817857 
452	 1181.29471835856 
453	 1195.12712904466 
454	 1210.43086614948 
455	 1225.19818588383 
456	 1238.569683542 
457	 1251.32131428854 
458	 1264.89628768973 
459	 1281.48810782324 
460	 1298.47663737225 
461	 1314.75204594366 
462	 1332.3249776527 
463	 1349.65460067737 
464	 1366.74566033682 
465	 1384.42749266466 
466	 1403.72876313465 
467	 1423.80290464881 
468	 1443.97389988146 
469	 1465.86259369597 
470	 1489.68260525656 
471	 1514.79947956833 
472	 1539.33264048997 
473	 1563.46870024485 
474	 1588.79198341727 
475	 1617.41895659476 
476	 1646.20875027948 
477	 1675.81789855348 
478	 1706.91193831381 
479	 1737.43901996972 
480	 1770.31289507964 
481	 1805.59324623417 
482	 1839.29551191402 
483	 1873.4138792077 
484	 1908.79520131081 
485	 1946.00643059381 
486	 1985.98047967477 
487	 2026.86698853112 
488	 2067.36264729782 
489	 2109.37603045319 
490	 2153.35757254476 
491	 2199.3214903388 
492	 2246.8372903252 
493	 2294.66394017127 
494	 2342.91635546431 
495	 2392.43066840028 
496	 2444.45428998487 
497	 2497.14459023681 
498	 2549.50332254234 
499	 2605.10076165465 
500	 2661.46482761604 
501	 2717.77386401436 
502	 2775.34773118261 
503	 2832.72691648458 
504	 2890.93481672544 
505	 2951.82668834113 
506	 3013.90959635839 
507	 3076.15303725437 
508	 3138.32949992211 
509	 3202.5879591091 
510	 3268.0156989643 
511	 3334.03225962672 
512	 3400.24551169213 
513	 3470.46401521592 
514	 3542.75684751728 
515	 3612.9919702231 
516	 3685.35422785115 
517	 3759.39205640185 
518	 3834.01320501112 
519	 3908.55432168264 
520	 3984.23508369459 
521	 4061.58518845048 
522	 4140.41803502179 
523	 4217.83859908179 
524	 4294.21141634769 
525	 4371.65870902385 
526	 4452.11807241926 
527	 4532.90368889254 
528	 4611.73958084935 
529	 4691.81533507364 
530	 4771.19424492389 
531	 4849.7847822568 
532	 4931.1549442955 
533	 5009.14028390213 
534	 5085.6484566608 
535	 5166.50999359891 
536	 5245.87657228146 
537	 5322.33325808338 
538	 5396.06732847978 
539	 5469.85299874318 
540	 5543.1151909156 
541	 5615.89327894852 
542	 5689.96773725131 
543	 5762.60533436475 
544	 5833.48252640436 
545	 5903.6835848115 
546	 5972.82578744433 
547	 6041.57558750585 
548	 6110.34076862652 
549	 6177.15755758348 
550	 6241.99348627444 
551	 6305.15159864145 
552	 6367.18829548118 
553	 6428.95371917756 
554	 6489.94996552508 
555	 6548.57949215709 
556	 6605.68500571465 
557	 6660.40092386535 
558	 6711.83620418326 
559	 6761.8959163193 
560	 6810.58434528594 
561	 6856.54410494727 
562	 6895.56528657252 
563	 6929.39144785357 
564	 6957.63272766954 
565	 6977.944718245 
566	 6994.80816195753 
567	 7005.90871031426 
568	 7007.52636061691 
569	 7005.62331840588 
570	 6998.12596031517 
571	 6984.49895777755 
572	 6972.19903487492 
573	 6955.18174577526 
574	 6932.55148520716 
575	 6909.80315167637 
576	 6878.83279392188 
577	 6841.42414511364 
578	 6802.9012088432 
579	 6757.1856840372 
580	 6707.6186246966 
581	 6658.69751123493 
582	 6612.19095679974 
583	 6574.43882079794 
584	 6543.72198227967 
585	 6505.65853525436 
586	 6465.98914008789 
587	 6426.12922223264 
588	 6386.3693153028 
589	 6350.42451758917 
590	 6319.43884630388 
591	 6294.60227651318 
592	 6281.23688038868 
593	 6272.71002422321 
594	 6264.46138033756 
595	 6254.85748240211 
596	 6256.43057736013 
597	 6273.38564872035 
598	 6304.116236408 
599	 6334.23573871299 
600	 6363.80179395089 
601	 6396.99585674827 
602	 6435.23271922259 
603	 6472.17032698596 
604	 6505.66050794834 
605	 6544.75190456564 
606	 6585.12899273267 
607	 6631.15537478572 
608	 6695.3572363705 
609	 6769.57835547538 
610	 6853.48259101156 
611	 6947.3653199302 
612	 7039.5434512391 
613	 7128.01670926026 
614	 7211.81142294289 
615	 7287.44728669785 
616	 7360.26121681459 
617	 7432.4345901449 
618	 7502.16510335171 
619	 7575.50633445464 
620	 7651.99531225479 
621	 7728.26795257727 
622	 7804.2137258061 
623	 7882.32803126183 
624	 7964.08179957377 
625	 8045.7982559175 
626	 8124.87341519603 
627	 8200.57184202691 
628	 8275.10408664565 
629	 8346.47381160836 
630	 8413.52008763708 
631	 8475.64355271271 
632	 8538.60672024777 
633	 8597.51285028296 
634	 8647.80305568863 
635	 8699.06288747644 
636	 8750.39304484363 
637	 8799.96581805168 
638	 8844.8755651897 
639	 8889.76877939005 
640	 8936.17238988902 
641	 8983.55550897152 
642	 9034.36924238021 
643	 9085.73936341634 
644	 9134.68167464588 
645	 9188.66336514331 
646	 9244.82783036713 
647	 9300.81928996633 
648	 9358.36787016346 
649	 9414.4223384545 
650	 9470.47603273811 
651	 9532.73013645378 
652	 9595.35617139895 
653	 9660.53740646237 
654	 9731.94508652947 
655	 9800.44619747003 
656	 9868.07361740939 
657	 9937.44040331471 
658	 10007.2858202065 
659	 10081.4714063431 
660	 10159.6053791515 
661	 10235.7233933532 
662	 10312.3794402939 
663	 10390.9492525611 
664	 10472.1589057947 
665	 10550.4876265982 
666	 10629.6115899002 
667	 10713.2359784411 
668	 10798.3174744661 
669	 10886.0127841614 
670	 10976.3972508602 
671	 11067.4407810508 
672	 11161.7243732161 
673	 11257.6700365954 
674	 11351.7779144652 
675	 11452.0780315275 
676	 11553.8867516988 
677	 11652.6223880866 
678	 11758.9120145034 
679	 11865.6277133962 
680	 11969.9106030789 
681	 12079.2172244845 
682	 12187.5114565818 
683	 12295.1415694653 
684	 12406.4748359374 
685	 12516.8335623302 
686	 12627.979862928 
687	 12742.4254502988 
688	 12856.6583173269 
689	 12971.6214579156 
690	 13087.6443970076 
691	 13203.0467589782 
692	 13316.7806933622 
693	 13429.1106297889 
694	 13541.5345854823 
695	 13650.8565757248 
696	 13758.1015401765 
697	 13865.1234956277 
698	 13969.2620715698 
699	 14072.240705235 
700	 14173.7968134189 
701	 14266.2173984155 
702	 14361.0340830467 
703	 14457.2317821719 
704	 14541.0675420639 
705	 14626.1645478894 
706	 14709.5823629824 
707	 14784.3918748913 
708	 14861.6762460274 
709	 14935.1810722714 
710	 15000.8470248453 
711	 15067.7043965065 
712	 15130.5107525289 
713	 15188.2734425948 
714	 15244.6351290139 
715	 15299.8670046079 
716	 15352.8088669331 
717	 15402.3464070401 
718	 15456.3053756592 
719	 15508.7413620911 
720	 15554.8836538273 
721	 15600.5320855796 
722	 15642.308627005 
723	 15680.8714672176 
724	 15722.1189437502 
725	 15763.1216791219 
726	 15805.6143258079 
727	 15852.0898847223 
728	 15892.5842651325 
729	 15932.8731684825 
730	 15976.9997708083 
731	 16013.0085368566 
732	 16054.6834804993 
733	 16103.2429222161 
734	 16142.8943070446 
735	 16179.9700124856 
736	 16215.805715294 
737	 16249.9996815551 
738	 16279.6114804735 
739	 16305.1207699519 
740	 16327.9489853667 
741	 16350.0191882388 
742	 16373.1989196952 
743	 16396.3425334751 
744	 16413.8223420836 
745	 16433.4350954231 
746	 16450.0265638436 
747	 16454.8913347504 
748	 16469.8872509276 
749	 16483.5925866618 
750	 16486.0578508116 
751	 16491.5324503794 
752	 16494.5681137178 
753	 16493.4978940115 
754	 16491.6213649768 
755	 16489.5760465104 
756	 16484.812634614 
757	 16473.2126107728 
758	 16453.9156809084 
759	 16423.5248130358 
760	 16386.1847927369 
761	 16370.6326379792 
762	 16360.727102267 
763	 16349.4922340188 
764	 16340.8729155849 
765	 16326.398915257 
766	 16308.1929996516 
767	 16291.0057288521 
768	 16261.3346352622 
769	 16228.4356905523 
770	 16199.7162087546 
771	 16168.8462406533 
772	 16134.8185732924 
773	 16098.7608839228 
774	 16064.2113127623 
775	 16028.6043725714 
776	 15991.3260679779 
777	 15952.2940272755 
778	 15911.4598197255 
779	 15866.6888364066 
780	 15817.7255878652 
781	 15769.0729292498 
782	 15721.2719224277 
783	 15672.2010858471 
784	 15617.2352319676 
785	 15561.324049204 
786	 15504.4505370113 
787	 15446.3083314663 
788	 15393.7410430804 
789	 15337.6828391947 
790	 15275.7189945506 
791	 15222.4498108912 
792	 15162.7857791722 
793	 15095.0099826522 
794	 15025.5673213508 
795	 14957.1708667169 
796	 14888.7739376214 
797	 14819.445507791 
798	 14754.1531444424 
799	 14688.2613947011 
800	 14619.5882194206 
801	 14550.1135896761 
802	 14479.2835141119 
803	 14409.3684670722 
804	 14343.2939320778 
805	 14275.0510352122 
806	 14205.5920068925 
807	 14135.4103905683 
808	 14059.1263297508 
809	 13983.4988375801 
810	 13910.0670486237 
811	 13834.6542106015 
812	 13763.1650187437 
813	 13691.098913955 
814	 13612.6273092659 
815	 13538.9211835778 
816	 13465.1115188011 
817	 13388.5081050552 
818	 13315.0032548902 
819	 13240.3281413045 
820	 13163.5227317177 
821	 13085.5206150059 
822	 13001.5503937693 
823	 12916.9926597831 
824	 12837.8071215036 
825	 12762.1904125862 
826	 12687.0946825832 
827	 12612.2735442993 
828	 12542.3081612345 
829	 12465.6049298494 
830	 12381.4079821407 
831	 12293.0170601854 
832	 12194.5583176908 
833	 12095.0159823288 
834	 12002.1830116576 
835	 11915.9625155146 
836	 11836.5944011168 
837	 11765.0145589456 
838	 11702.6659491915 
839	 11649.4804470048 
840	 11599.7653989208 
841	 11546.8529780917 
842	 11487.9302760311 
843	 11420.7888631297 
844	 11346.9561817917 
845	 11273.2063826139 
846	 11200.420673934 
847	 11127.6357943012 
848	 11052.9370685431 
849	 10977.7004471137 
850	 10903.2816641145 
851	 10830.056818183 
852	 10755.871263529 
853	 10682.5832820168 
854	 10611.2487113469 
855	 10542.2593185543 
856	 10472.0681562099 
857	 10402.0818225163 
858	 10333.0823283881 
859	 10257.8630170698 
860	 10183.4949646061 
861	 10112.4345789067 
862	 10040.8161927524 
863	 9971.68353008799 
864	 9903.40925618355 
865	 9833.37627977799 
866	 9764.02056619442 
867	 9694.33352027753 
868	 9624.0228439226 
869	 9554.65078432878 
870	 9486.9294243818 
871	 9420.44587730563 
872	 9354.08389415067 
873	 9288.00797942916 
874	 9220.63285205466 
875	 9150.87674026048 
876	 9079.41818242906 
877	 9007.69045191975 
878	 8937.0931254029 
879	 8868.90499531598 
880	 8800.68148554667 
881	 8734.33168374885 
882	 8671.15614195073 
883	 8605.69814086418 
884	 8542.93773456366 
885	 8482.51324967199 
886	 8417.54927801827 
887	 8350.46010145542 
888	 8282.89824857445 
889	 8216.42331025445 
890	 8152.24352432487 
891	 8087.27601481495 
892	 8020.99490542107 
893	 7957.58847453908 
894	 7891.12121946406 
895	 7823.12640223369 
896	 7757.48835665859 
897	 7691.68775433526 
898	 7625.26636179149 
899	 7558.94389175133 
900	 7495.52371779895 
901	 7433.40053854962 
902	 7371.01220502904 
903	 7307.06979149975 
904	 7244.5212939789 
905	 7182.93772965497 
906	 7121.46838764267 
907	 7059.52940936828 
908	 6996.62400383604 
909	 6932.78553443184 
910	 6868.43861793551 
911	 6803.38270555698 
912	 6741.38869302181 
913	 6683.38137853265 
914	 6621.17944888717 
915	 6558.90466810278 
916	 6497.66217804757 
917	 6436.69744069459 
918	 6376.84525534941 
919	 6316.8646994019 
920	 6255.52570170638 
921	 6192.49016462656 
922	 6129.59069373915 
923	 6068.01354954508 
924	 6008.3734952092 
925	 5949.98036421571 
926	 5892.57075679954 
927	 5835.30646482268 
928	 5775.62394675652 
929	 5713.50764190217 
930	 5649.02750969088 
931	 5582.57705806185 
932	 5517.75471172428 
933	 5453.44204884992 
934	 5389.09997559255 
935	 5329.04118243988 
936	 5270.12044180609 
937	 5212.65395923368 
938	 5158.94046159066 
939	 5101.66905747915 
940	 5044.10433604143 
941	 4988.53512998898 
942	 4928.70582302961 
943	 4868.8100307873 
944	 4811.40691548146 
945	 4757.53314599432 
946	 4701.55829857065 
947	 4646.19673973061 
948	 4593.17657448986 
949	 4538.08600269287 
950	 4485.14205628171 
951	 4433.33610510469 
952	 4379.53295613481 
953	 4329.6623920611 
954	 4280.8324556556 
955	 4230.5616052263 
956	 4179.77111123904 
957	 4126.59763060227 
958	 4072.88824207846 
959	 4021.4336429292 
960	 3968.31456244327 
961	 3915.96604750877 
962	 3865.20771690701 
963	 3813.2554062261 
964	 3762.20304038337 
965	 3712.03681460253 
966	 6233.11920571193 
967	 6301.5176370872 
968	 6373.85127880823 
969	 6456.14479655428 
970	 6545.02412900468 
971	 6640.98919142505 
972	 6749.99946139654 
973	 6854.87541324757 
974	 6964.53164093711 
975	 7073.68641063845 
976	 7184.10052392261 
977	 7295.06437511292 
978	 7402.60924754613 
979	 7503.48231822155 
980	 7598.36946120784 
981	 7691.26485115414 
982	 7781.15273844883 
983	 7870.6370414772 
984	 7952.5739762224 
985	 8027.71799190888 
986	 8099.79221405424 
987	 8162.96115216617 
988	 8230.47193541939 
989	 8297.18384653366 
990	 8362.74053992954 
991	 8429.92196666745 
992	 8494.22561447265 
993	 8555.29746691304 
994	 8615.4957140259 
995	 8677.72178541272 
996	 8736.99786898524 
997	 8798.44272148154 
998	 8859.70657060502 
999	 8920.65837047863 
1000	 8983.80078008714 
1001	 9043.67837576144 
1002	 9106.92809796036 
1003	 9171.65748880401 
1004	 9230.66956490101 
1005	 9291.74332390466 
1006	 9355.84891538348 
1007	 9415.25694143835 
1008	 9470.46806876994 
1009	 9530.21282551413 
1010	 9591.66107869241 
1011	 9648.79791277131 
1012	 9706.64926523209 
1013	 9764.43714585189 
1014	 9818.04763800634 
1015	 9872.46172255517 
1016	 9923.91876619407 
1017	 9973.83203518672 
1018	 10027.7490545076 
1019	 10078.3831701005 
1020	 10128.8576500772 
1021	 10183.3423457767 
1022	 10233.9741425701 
1023	 10284.6388056741 
1024	 10333.4556376331 
1025	 10387.3194213153 
1026	 10440.4854029591 
1027	 10494.37242473 
1028	 10549.4227703913 
1029	 10602.2115639146 
1030	 10658.2203560852 
1031	 10714.7086868103 
1032	 10771.9689353378 
1033	 10832.5759674911 
1034	 10889.3673141161 
1035	 10945.2905590023 
1036	 11000.8909346712 
1037	 11055.8575047193 
1038	 11113.2914510518 
1039	 11169.4520940544 
1040	 11223.4334527902 
1041	 11276.6345649476 
1042	 11328.5925428899 
1043	 11378.1857409017 
1044	 11427.3116575263 
1045	 11475.6673226482 
1046	 11521.6636260328 
1047	 11567.2462067014 
1048	 11613.2471123347 
1049	 11657.9077321863 
1050	 11701.087998969 
1051	 11746.3657005554 
1052	 11791.0012535194 
1053	 11834.3885766435 
1054	 11878.103669648 
1055	 11916.3053009047 
1056	 11953.3476546439 
1057	 11992.0931391368 
1058	 12029.5915405006 
1059	 12069.3145599191 
1060	 12114.2238696591 
1061	 12152.6409249521 
1062	 12186.3613657339 
1063	 12225.1692511822 
1064	 12263.7549351023 
1065	 12303.0554128494 
1066	 12347.9177283399 
1067	 12391.150463865 
1068	 12434.2069617136 
1069	 12478.7533101839 
1070	 12522.685244807 
1071	 12567.76688359 
1072	 12612.7234165416 
1073	 12655.9305488584 
1074	 12701.1941205883 
1075	 12746.1508926105 
1076	 12795.0901613026 
1077	 12845.471490785 
1078	 12900.0644841879 
1079	 12959.7732177263 
1080	 13018.0131797997 
1081	 13078.3880164196 
1082	 13138.6090814848 
1083	 13197.2893718306 
1084	 13259.4866353548 
1085	 13323.2532753238 
1086	 13389.7622146083 
1087	 13459.1962342791 
1088	 13530.4842042205 
1089	 13604.040727214 
1090	 13680.5075657357 
1091	 13760.7348954258 
1092	 13841.9446411196 
1093	 13930.7715336977 
1094	 14025.1300629655 
1095	 14123.0306230379 
1096	 14226.3256186663 
1097	 14332.5637123006 
1098	 14442.546525069 
1099	 14556.3498086935 
1100	 14674.1363124135 
1101	 14795.1638078462 
1102	 14918.4159474876 
1103	 15048.0677665685 
1104	 15183.2763659578 
1105	 15321.4447753534 
1106	 15461.5403589973 
1107	 15607.4383881465 
1108	 15758.1530116772 
1109	 15910.5594444683 
1110	 16066.6128304977 
1111	 16228.5748146427 
1112	 16391.9312411733 
1113	 16555.5909218927 
1114	 16725.4075451415 
1115	 16900.0763790814 
1116	 17078.9515953907 
1117	 17262.6395599343 
1118	 17447.703571195 
1119	 17635.1704378183 
1120	 17828.4840296294 
1121	 18023.6945637241 
1122	 18225.2645901869 
1123	 18435.3013847869 
1124	 18646.7441422974 
1125	 18862.8100235369 
1126	 19080.5138268972 
1127	 19298.9839595758 
1128	 19520.8908282308 
1129	 19740.4208990208 
1130	 19960.8089795352 
1131	 20178.7374577195 
1132	 20395.628267652 
1133	 20611.728670327 
1134	 20825.9597586269 
1135	 21040.6603544913 
1136	 21258.1418010051 
1137	 21468.8067159737 
1138	 21676.2321562479 
1139	 21882.2344712817 
1140	 22083.1667130025 
1141	 22284.2677681308 
1142	 22487.6022178809 
1143	 22684.9384851343 
1144	 22878.9151499484 
1145	 23069.5743240519 
1146	 23253.6140161044 
1147	 23438.3559923169 
1148	 23621.7502156435 
1149	 23803.7774349613 
1150	 23982.9656184583 
1151	 24162.5630732749 
1152	 24335.490741639 
1153	 24503.6743442573 
1154	 24669.6175856901 
1155	 24832.9657932338 
1156	 24990.7885197825 
1157	 25146.9376712681 
1158	 25294.8225899571 
1159	 25435.2483832937 
1160	 25572.3410832494 
1161	 25703.2963161184 
1162	 25830.9556865803 
1163	 25956.5859243645 
1164	 26074.846897047 
1165	 26187.7299436565 
1166	 26294.7238807044 
1167	 26392.2120204673 
1168	 26490.5128078617 
1169	 26580.9792839068 
1170	 26669.4649818307 
1171	 26754.6069333376 
1172	 26836.8449556808 
1173	 26913.5239726841 
1174	 26985.3677555637 
1175	 27056.413572511 
1176	 27123.7700808026 
1177	 27188.1003492576 
1178	 27251.4796153303 
1179	 27309.7788553075 
1180	 27363.1483540365 
1181	 27414.2250536077 
1182	 27460.6997350469 
1183	 27507.3031234099 
1184	 27549.0324883574 
1185	 27593.7264321949 
1186	 27640.7358323703 
1187	 27685.1226405853 
1188	 27731.4639359824 
1189	 27773.2006035254 
1190	 27809.7062538128 
1191	 27847.4215760381 
1192	 27884.8329288103 
1193	 27918.2918129634 
1194	 27954.4776650172 
1195	 27988.8380310688 
1196	 28018.7621450863 
1197	 28045.6933148739 
1198	 28070.6308890183 
1199	 28093.0360176529 
1200	 28112.2507830472 
1201	 28128.9312382067 
1202	 28143.2339526607 
1203	 28151.5869564337 
1204	 28162.3153111107 
1205	 28173.5907971026 
1206	 28182.452743318 
1207	 28192.0537381439 
1208	 28198.1531741799 
1209	 28200.760864306 
1210	 28202.5487764606 
1211	 28201.1508953738 
1212	 28200.6472140961 
1213	 28201.3898364766 
1214	 28200.9180204494 
1215	 28202.8120854912 
1216	 28202.1015810125 
1217	 28200.0724408606 
1218	 28197.761394182 
1219	 28194.4963824534 
1220	 28191.4732482903 
1221	 28188.480419063 
1222	 28186.2109966201 
1223	 28181.2677157234 
1224	 28174.0974970235 
1225	 28170.2485103059 
1226	 28164.7445483068 
1227	 28162.8411948966 
1228	 28166.2132224102 
1229	 28165.9176172933 
1230	 28163.9853676347 
1231	 28163.8863511117 
1232	 28164.2648577809 
1233	 28164.4033618492 
1234	 28164.1618785232 
1235	 28167.2482314281 
1236	 28171.6070687334 
1237	 28174.8526157919 
1238	 28184.7045452643 
1239	 28194.6539846265 
1240	 28200.9221278129 
1241	 28210.4531679165 
1242	 28221.3772141976 
1243	 28231.1079953427 
1244	 28243.4659294466 
1245	 28259.2464838087 
1246	 28276.0651286773 
1247	 28294.0142750972 
1248	 28313.0125829299 
1249	 28333.1643133976 
1250	 28356.6624567072 
1251	 28382.494706125 
1252	 28409.646366118 
1253	 28440.9144920197 
1254	 28470.1495175953 
1255	 28499.1708071547 
1256	 28528.0030290813 
1257	 28557.372490781 
1258	 28585.4486750706 
1259	 28612.58419498 
1260	 28640.0959870433 
1261	 28666.1866431878 
1262	 28695.9211754976 
1263	 28722.4347670269 
1264	 28744.0944273378 
1265	 28769.0180105556 
1266	 28789.4503419852 
1267	 28806.2753604576 
1268	 28823.7656121694 
1269	 28832.053635408 
1270	 28835.4050585378 
1271	 28836.3460964667 
1272	 28827.7956931957 
1273	 28814.3533525498 
1274	 28796.0927193902 
1275	 28770.4806920647 
1276	 28742.6070304706 
1277	 28710.0534841459 
1278	 28671.3441008763 
1279	 28629.0571059837 
1280	 28582.0963674482 
1281	 28532.7758558351 
1282	 28478.9654671703 
1283	 28423.2966386912 
1284	 28364.0185247441 
1285	 28304.5546360005 
1286	 28240.4671249379 
1287	 28180.6289287962 
1288	 28121.0097700814 
1289	 28064.2679755846 
1290	 28011.4639300078 
1291	 27957.6283135775 
1292	 27906.0619375399 
1293	 27858.1771732355 
1294	 27811.2608154747 
1295	 27772.4921291405 
1296	 27738.6174174407 
1297	 27707.5785231292 
1298	 27686.7658490103 
1299	 27669.4690309389 
1300	 27659.5223916164 
1301	 27657.6753294068 
1302	 27657.5998241405 
1303	 27664.2636136382 
1304	 27673.6873120199 
1305	 27685.7308537688 
1306	 27701.9205901228 
1307	 27720.2111753444 
1308	 27740.2568329722 
1309	 27762.2390634722 
1310	 27789.8943536067 
1311	 27816.9868073109 
1312	 27843.6514399472 
1313	 27872.3923401194 
1314	 27902.0178359019 
1315	 27928.0169484186 
1316	 27958.7844026735 
1317	 27991.8438470167 
1318	 28027.8473654132 
1319	 28064.4163757486 
1320	 28110.0149350224 
1321	 28158.7848734118 
1322	 28213.8297499081 
1323	 28272.0894739957 
1324	 28334.7013378993 
1325	 28406.086289847 
1326	 28482.2137128101 
1327	 28564.7222729633 
1328	 28649.7120395372 
1329	 28734.6623600917 
1330	 28824.7852835507 
1331	 28921.3582360676 
1332	 29024.9019913778 
1333	 29136.7638500934 
1334	 29249.7676453797 
1335	 29363.1968801516 
1336	 29481.9236171901 
1337	 29604.4542151079 
1338	 29730.2690407232 
1339	 29857.4254525227 
1340	 29982.2103918526 
1341	 30103.9918052213 
1342	 30219.8081594844 
1343	 30332.6859873214 
1344	 30438.7008370471 
1345	 30532.2703035399 
1346	 30619.2411384644 
1347	 30691.6578703147 
1348	 30748.5951148881 
1349	 30797.3457646389 
1350	 30835.0218673785 
1351	 30862.281908583 
1352	 30877.2462471661 
1353	 30889.3565863629 
1354	 30890.1932538492 
1355	 30890.307253019 
1356	 30897.738652755 
1357	 30909.530503445 
1358	 30934.6521726474 
1359	 30973.9125710451 
1360	 31021.3929472966 
1361	 31090.1431323356 
1362	 31183.1668567296 
1363	 31296.1489338735 
1364	 31442.3482500769 
1365	 31607.5863554895 
1366	 31790.0643432143 
1367	 31988.8555772225 
1368	 32194.862671911 
1369	 32396.517339562 
1370	 32596.7473780087 
1371	 32776.7245288444 
1372	 32922.0315734822 
1373	 33040.3434451919 
1374	 33111.6894230531 
1375	 33147.150705942 
1376	 33145.4812982227 
1377	 33112.5697006349 
1378	 33053.1236550922 
1379	 32978.6464737124 
1380	 32898.6416570405 
1381	 32819.7584139964 
1382	 32750.5757557091 
1383	 32686.3520967664 
1384	 32647.454224011 
1385	 32623.8050745866 
1386	 32617.2922771345 
1387	 32634.0061265142 
1388	 32657.2365712798 
1389	 32687.9166363467 
1390	 32728.9481889508 
1391	 32778.072720349 
1392	 32839.7593442061 
1393	 32910.0403210216 
1394	 32996.9303099052 
1395	 33098.9148600583 
1396	 33211.8829922288 
1397	 33333.4915938761 
1398	 33459.7963270676 
1399	 33586.3637737361 
1400	 33714.0016372629 
1401	 33845.2755480764 
1402	 33970.9734392627 
1403	 34090.394207219 
1404	 34201.8785402287 
1405	 34293.2703133734 
1406	 34379.1918468266 
1407	 34461.6665651257 
1408	 34537.6267467582 
1409	 34612.9678386392 
1410	 34685.4391261913 
1411	 34754.3743339687 
1412	 34816.0161161443 
1413	 34872.9994574592 
1414	 34923.3534183022 
1415	 34965.7088544357 
1416	 35004.0344341129 
1417	 35036.8969223356 
1418	 35066.6059777705 
1419	 35092.6113954496 
1420	 35109.3736473007 
1421	 35118.0740034722 
1422	 35121.1365764167 
1423	 35115.515942179 
1424	 35104.6420249531 
1425	 35090.2330299088 
1426	 35071.0112198127 
1427	 35044.889488524 
1428	 35012.8687057313 
1429	 34977.6531214966 
1430	 34936.3025597025 
1431	 34893.9502120928 
1432	 34850.5027903486 
1433	 34803.3749728841 
1434	 34757.8659249103 
1435	 34712.962665733 
1436	 34670.2929621808 
1437	 34630.256839567 
1438	 34589.5658004849 
1439	 34549.6802831128 
1440	 34507.2171550769 
1441	 34466.2761015095 
1442	 34428.6964722938 
1443	 34390.6279455011 
1444	 34356.2688874779 
1445	 34322.2458846359 
1446	 34288.9925796743 
1447	 34255.7829264824 
1448	 34225.2230351068 
1449	 34190.4095176487 
1450	 34153.8047422702 
1451	 34117.9694643446 
1452	 34080.4778013383 
1453	 34042.5935152574 
1454	 34006.6172483601 
1455	 33967.9632961198 
1456	 33924.8029553304 
1457	 33879.3145032885 
1458	 33830.8890995841 
1459	 33777.2738674814 
1460	 33719.5206165691 
1461	 33660.2832224891 
1462	 33597.9705011765 
1463	 33534.1824586917 
1464	 33470.6551061223 
1465	 33403.4963894829 
1466	 33334.6129871755 
1467	 33268.3301407687 
1468	 33201.563205061 
1469	 33138.7544479302 
1470	 33080.9160538024 
1471	 33021.6822906193 
1472	 32968.23432602 
1473	 32918.407636357 
1474	 32869.6167997475 
1475	 32826.2844635487 
1476	 32783.7286149724 
1477	 32740.7625085615 
1478	 32697.0323443355 
1479	 32652.8253523932 
1480	 32611.1080069014 
1481	 32572.0180663883 
1482	 32534.4287272251 
1483	 32496.9743949559 
1484	 32458.3213810019 
1485	 32416.1840734403 
1486	 32374.6662037829 
1487	 32336.0509526486 
1488	 32296.6934650431 
1489	 32257.3827880341 
1490	 32219.9175489515 
1491	 32180.6007706894 
1492	 32137.6202257408 
1493	 32097.4853646488 
1494	 32057.9868500348 
1495	 32018.182954427 
1496	 31980.487003081 
1497	 31939.9758693645 
1498	 31901.0750508146 
1499	 31866.5426042309 
1500	 31829.9640939195 
1501	 31793.8530164407 
1502	 31756.19016601 
1503	 31712.2759904661 
1504	 31670.0309232976 
1505	 31631.1986040424 
1506	 31592.271422793 
1507	 31554.230650354 
1508	 31514.5955411303 
1509	 31472.7889526264 
1510	 31431.4100243069 
1511	 31388.4348533025 
1512	 31348.5460584745 
1513	 31310.9399083387 
1514	 31268.7164241042 
1515	 31228.5118001503 
1516	 31187.7043786616 
1517	 31143.9198823323 
1518	 31106.1221287241 
1519	 31066.2891366886 
1520	 31023.8284470291 
1521	 30981.8609876382 
1522	 30933.1243259807 
1523	 30885.2097064674 
1524	 30837.3409411526 
1525	 30789.64284141 
1526	 30747.4159810517 
1527	 30702.3120770417 
1528	 30658.6723633114 
1529	 30616.2371201856 
1530	 30570.5886546454 
1531	 30526.9679388656 
1532	 30481.555616563 
1533	 30434.1930374966 
1534	 30386.2966359451 
1535	 30337.7201771318 
1536	 30291.5043273156 
1537	 30240.7598155528 
1538	 30187.5613962986 
1539	 30142.2652746775 
1540	 30092.5238609679 
1541	 30040.8315380175 
1542	 29994.7763983706 
1543	 29941.6807256244 
1544	 29886.4193183157 
1545	 29833.3311133651 
1546	 29777.9169922401 
1547	 29722.1902346998 
1548	 29668.8898899873 
1549	 29617.364298661 
1550	 29562.1701895811 
1551	 29506.9633634343 
1552	 29453.1986456831 
1553	 29393.8087887988 
1554	 29338.2273760032 
1555	 29284.7793171741 
1556	 29227.0719826861 
1557	 29172.382790046 
1558	 29115.5619469349 
1559	 29056.4309182799 
1560	 28997.2489874265 
1561	 28937.7734612453 
1562	 28878.785916297 
1563	 28816.9708681288 
1564	 28756.4724284383 
1565	 28696.4384823024 
1566	 28632.6226554631 
1567	 28571.22539965 
1568	 28511.8655943507 
1569	 28448.6996168573 
1570	 28385.364734345 
1571	 28321.2100860799 
1572	 28251.286211512 
1573	 28181.2878291751 
1574	 28113.6198872672 
1575	 28046.5379825845 
1576	 27980.4359667642 
1577	 27912.4145260076 
1578	 27844.3531847319 
1579	 27775.6506194772 
1580	 27704.4961011845 
1581	 27635.3382169135 
1582	 27568.6250905182 
1583	 27499.8181494478 
1584	 27429.7069153618 
1585	 27360.0787681145 
1586	 27286.0682663536 
1587	 27211.8568665396 
1588	 27143.0454117059 
1589	 27072.5137926716 
1590	 27000.9299093206 
1591	 26930.1706629673 
1592	 26854.624760152 
1593	 26779.555217578 
1594	 26709.303953314 
1595	 26640.2175738106 
1596	 26570.6903110053 
1597	 26499.3080670883 
1598	 26427.854047303 
1599	 26352.2941812839 
1600	 26273.0695518906 
1601	 26197.1154466195 
1602	 26118.5251982405 
1603	 26040.2423275598 
1604	 25964.6803557894 
1605	 25886.7149934578 
1606	 25807.3987036783 
1607	 25727.7774890827 
1608	 25650.4902711345 
1609	 25571.4649719857 
1610	 25490.120087872 
1611	 25408.181404704 
1612	 25321.6124529981 
1613	 25236.8662488358 
1614	 25155.9722633323 
1615	 25074.3730834247 
1616	 24993.6777342925 
1617	 24911.2837506942 
1618	 24825.630087401 
1619	 24737.7583875086 
1620	 24647.5245895611 
1621	 24556.8106492824 
1622	 24465.4901962676 
1623	 24371.8190605156 
1624	 24278.3899781331 
1625	 24185.8125663415 
1626	 24091.596738362 
1627	 23995.7962289305 
1628	 23897.9147525337 
1629	 23800.5188413032 
1630	 23705.2526667654 
1631	 23613.0031163033 
1632	 23524.0858821106 
1633	 23434.9030073206 
1634	 23344.0481796159 
1635	 23256.404165396 
1636	 23170.1546509987 
1637	 23085.4423743517 
1638	 23006.1319261792 
1639	 22923.0595988586 
1640	 22838.2525598113 
1641	 22754.1856583022 
1642	 22670.4867373865 
1643	 22583.2467325534 
1644	 22496.4967481423 
1645	 22406.3974869578 
1646	 22310.7509705119 
1647	 22216.6632156557 
1648	 22123.0052079461 
1649	 22025.6525836848 
1650	 21926.1943872215 
1651	 21826.6677684697 
1652	 21726.318561888 
1653	 21621.820147285 
1654	 21519.8897473631 
1655	 21406.7410848958 
1656	 21288.5904714756 
1657	 21160.6224889715 
1658	 21023.9647266814 
1659	 20879.9875998451 
1660	 20727.5677258563 
1661	 20566.6056092015 
1662	 20396.8390448315 
1663	 20222.5174260678 
1664	 20035.7394866838 
1665	 19854.392527555 
1666	 19670.5635681437 
1667	 19488.3773174322 
1668	 19303.2916227955 
1669	 19129.2962383277 
1670	 18955.3267513839 
1671	 18796.5136919783 
1672	 18647.427193688 
1673	 18510.4343146261 
1674	 18384.8475162016 
1675	 18267.0281989317 
1676	 18159.7356255357 
1677	 18062.3849452116 
1678	 17975.0419438271 
1679	 17892.739437618 
1680	 17821.2398296679 
1681	 17752.4234064637 
1682	 17686.4381998462 
1683	 17631.5151751487 
1684	 17583.8692767655 
1685	 17537.984934178 
1686	 17497.0395650602 
1687	 17457.3513142485 
1688	 17419.7346316273 
1689	 17387.0511775486 
1690	 17353.4887182177 
1691	 17318.8430457387 
1692	 17287.6894241962 
1693	 17261.938989241 
1694	 17231.1043102625 
1695	 17202.0491452253 
1696	 17168.6242200057 
1697	 17126.1331443693 
1698	 17088.7313534176 
1699	 17050.7283530436 
1700	 17016.3540895805 
1701	 16983.8233430853 
1702	 16955.5091865112 
1703	 16933.0320547005 
1704	 16908.099298376 
1705	 16888.1433642239 
1706	 16861.6719526618 
1707	 16830.3603559494 
1708	 16799.8497743277 
1709	 16764.1520659551 
1710	 16735.0359631357 
1711	 16711.7762030632 
1712	 16681.5487774618 
1713	 16652.7375887995 
1714	 16619.1307414892 
1715	 16576.2671421086 
1716	 16541.3164251138 
1717	 16508.149491125 
1718	 16476.7199659415 
1719	 16449.3401767916 
1720	 16418.8442536187 
1721	 16386.7248470239 
1722	 16358.8809033382 
1723	 16332.0909199665 
1724	 16305.2023761015 
1725	 16281.4291713688 
1726	 16254.5723015224 
1727	 16228.1426069473 
1728	 16204.4817741857 
1729	 16183.3149187751 
1730	 16163.7974824632 
1731	 16141.7945018499 
1732	 16113.9722264543 
1733	 16089.4024485506 
1734	 16063.020464339 
1735	 16038.6500799603 
1736	 16017.6271185918 
1737	 15997.4962174611 
1738	 15977.6355363964 
1739	 15958.6687968461 
1740	 15941.6178267544 
1741	 15925.1321166681 
1742	 15909.5146692549 
1743	 15893.2505554857 
1744	 15878.0529351135 
1745	 15862.052496073 
1746	 15844.1288789675 
1747	 15828.6865296774 
1748	 15814.5483454675 
1749	 15801.1787954204 
1750	 15788.922697037 
1751	 15776.7374950084 
1752	 15765.0642309403 
1753	 15753.5195440773 
1754	 15742.8584999378 
1755	 15732.7712389606 
1756	 9296.90949940802 
1757	 9414.92295988016 
1758	 9509.51025925127 
1759	 9630.11917761941 
1760	 9759.5664185983 
1761	 9886.75706041926 
1762	 10019.9906858067 
1763	 10155.7259772035 
1764	 10279.2137155955 
1765	 10382.1244185813 
1766	 10503.6797895176 
1767	 10627.1601191732 
1768	 10754.0125802561 
1769	 10894.3828501462 
1770	 11021.6745481056 
1771	 11140.241676823 
1772	 11270.9930653977 
1773	 11394.9618882276 
1774	 11516.1666875115 
1775	 11631.8569643342 
1776	 11737.2832595993 
1777	 11855.5521394309 
1778	 11974.6997716646 
1779	 12094.7144117755 
1780	 12226.9532234003 
1781	 12362.8163524626 
1782	 12493.1116711223 
1783	 12620.9299284335 
1784	 12742.9433651899 
1785	 12857.1275333544 
1786	 12977.6258818472 
1787	 13094.5419317933 
1788	 13207.322747677 
1789	 13338.3212869247 
1790	 13459.6681325202 
1791	 13566.4320323184 
1792	 13684.8007618976 
1793	 13803.326140679 
1794	 13913.4459958303 
1795	 14016.4396146628 
1796	 14134.1509603493 
1797	 14248.7081162235 
1798	 14351.202788731 
1799	 14476.7433129018 
1800	 14612.0452232143 
1801	 14732.6739474562 
1802	 14847.5105840829 
1803	 14947.4573834613 
1804	 15028.0580734902 
1805	 15103.8459471322 
1806	 15166.7747856375 
1807	 15232.7387983592 
1808	 15287.1067913514 
1809	 15349.3825048281 
1810	 15405.9304160739 
1811	 15446.8209172361 
1812	 15489.2023540605 
1813	 15522.845532685 
1814	 15561.218830046 
1815	 15597.3969769171 
1816	 15635.7522328148 
1817	 15679.3245733136 
1818	 15714.3854869988 
1819	 15753.4224892115 
1820	 15787.1702542718 
1821	 15810.4428084106 
1822	 15821.2726614115 
1823	 15837.3663363708 
1824	 15840.6104519034 
1825	 15857.9923112729 
1826	 15894.4255155272 
1827	 15912.5542867327 
1828	 15929.3611284886 
1829	 15937.1112410138 
1830	 15945.9409895609 
1831	 15939.2549752034 
1832	 15946.3066767418 
1833	 15950.6905680458 
1834	 15973.8960259901 
1835	 16000.0663387869 
1836	 16040.850112513 
1837	 16112.6274536018 
1838	 16171.6194040423 
1839	 16225.2943936454 
1840	 16296.5209782824 
1841	 16357.3840355414 
1842	 16407.7126713533 
1843	 16473.348768543 
1844	 16549.5058573701 
1845	 16618.6576971245 
1846	 16698.4592877478 
1847	 16764.7447143419 
1848	 16816.2798755684 
1849	 16870.8550412449 
1850	 16938.9533532156 
1851	 17012.5019281069 
1852	 17075.724077004 
1853	 17156.2383592451 
1854	 17207.202329608 
1855	 17236.233196032 
1856	 17261.7821154627 
1857	 17281.422308068 
1858	 17282.8428508391 
1859	 17283.0123247531 
1860	 17274.056704964 
1861	 17239.3745253205 
1862	 17188.6849737472 
1863	 17134.9808451695 
1864	 17043.4703807847 
1865	 16993.2406446992 
1866	 16929.547578377 
1867	 16922.804437001 
1868	 16944.883419298 
1869	 17001.4275257589 
1870	 17100.7726023594 
1871	 17233.0090319655 
1872	 17379.4491457254 
1873	 17537.4639832338 
1874	 17693.80181048 
1875	 17846.0209008361 
1876	 17974.6427974881 
1877	 18092.8828812284 
1878	 18185.166833178 
1879	 18256.1748554516 
1880	 18311.0514721615 
1881	 18349.1336998372 
1882	 18376.0499106181 
1883	 18397.1233720952 
1884	 18395.2042823964 
1885	 18380.0569930161 
1886	 18346.9424584266 
1887	 18309.3041607019 
1888	 18259.3921324775 
1889	 18203.9907816234 
1890	 18134.7219901783 
1891	 18071.9556080696 
1892	 17991.4906264765 
1893	 17897.4542168317 
1894	 17813.7400248165 
1895	 17727.2508876509 
1896	 17645.1479655272 
1897	 17577.7895988592 
1898	 17523.5891701741 
1899	 17473.6811922382 
1900	 17427.1840718722 
1901	 17399.2592236749 
1902	 17389.3485055197 
1903	 17391.7315911376 
1904	 17417.5034170141 
1905	 17448.2673945066 
1906	 17461.4596330615 
1907	 17469.231847703 
1908	 17484.6883211518 
1909	 17496.0747148675 
1910	 17511.3475974301 
1911	 17538.9795319194 
1912	 17556.925128042 
1913	 17566.6174560176 
1914	 17581.0730363042 
1915	 17594.190234074 
1916	 17613.2411805203 
1917	 17641.4875111125 
1918	 17667.3559369909 
1919	 17703.2745876948 
1920	 17751.8988739961 
1921	 17793.5754401373 
1922	 17840.7950288317 
1923	 17884.5666475486 
1924	 17922.2405976869 
1925	 17962.2126336559 
1926	 18006.3991562659 
1927	 18047.0432707701 
1928	 18083.5782781885 
1929	 18116.2656336634 
1930	 18138.0304177513 
1931	 18148.4144495669 
1932	 18161.5083761707 
1933	 18165.6343924188 
1934	 18174.5312888536 
1935	 18183.6808163916 
1936	 18192.7649173037 
1937	 18208.5612790153 
1938	 18213.2096951279 
1939	 18207.2348459759 
1940	 18211.5716611681 
1941	 18209.2791553146 
1942	 18194.6211964037 
1943	 18192.3592843089 
1944	 18199.414695624 
1945	 18197.6953026146 
1946	 18202.5900031506 
1947	 18192.2689271162 
1948	 18172.3492120931 
1949	 18150.1335659931 
1950	 18109.3190544745 
1951	 18082.1464273303 
1952	 18059.6197008214 
1953	 18036.3392822734 
1954	 18017.8029490508 
1955	 18013.7929680658 
1956	 17988.1491535328 
1957	 17953.755799379 
1958	 17921.6116415378 
1959	 17879.1525480012 
1960	 17840.8088566599 
1961	 17804.8520694607 
1962	 17769.0830896995 
1963	 17733.9047313592 
1964	 17694.9453258285 
1965	 17662.5973072121 
1966	 17623.5186060507 
1967	 17565.5235286208 
1968	 17492.7057906735 
1969	 17422.3619309679 
1970	 17333.3315561385 
1971	 17258.1560594464 
1972	 17191.6141454909 
1973	 17117.3318528216 
1974	 17041.3862333001 
1975	 16965.2852383328 
1976	 16881.4395758776 
1977	 16804.9897664277 
1978	 16729.1617835919 
1979	 16662.7231469519 
1980	 16591.6070931757 
1981	 16529.2238609495 
1982	 16448.8811452113 
1983	 16362.10913528 
1984	 16268.8500550388 
1985	 16157.0956735373 
1986	 16060.8791704668 
1987	 15967.5636590164 
1988	 15873.0306283341 
1989	 15783.3235070428 
1990	 15692.250625126 
1991	 15599.5732358259 
1992	 15508.9667817916 
1993	 15411.5220715429 
1994	 15314.9650551219 
1995	 15218.6549153587 
1996	 15115.2414263393 
1997	 15019.0830889727 
1998	 14931.0008069449 
1999	 14838.1134206339 
2000	 14740.7523086038 
2001	 14650.4589799392 
2002	 14563.080230761 
2003	 14474.9502497898 
2004	 14391.0184387257 
2005	 14308.490361588 
2006	 14215.9515674531 
2007	 14123.2046138558 
2008	 14027.8989162526 
2009	 13928.9121812996 
2010	 13836.0260001236 
2011	 13748.1259838446 
2012	 13655.6226496407 
2013	 13566.1379137476 
2014	 13471.8926955447 
2015	 13371.4964846674 
2016	 13271.599564783 
2017	 13164.601768054 
2018	 13066.7171545671 
2019	 12969.2145905863 
2020	 12884.8248511202 
2021	 12792.8137554737 
2022	 12706.8833177431 
2023	 12620.3879815111 
2024	 12526.3981099042 
2025	 12443.3297070389 
2026	 12367.9378437063 
2027	 12294.0266140619 
2028	 12227.6167118902 
2029	 12154.5319766247 
2030	 12082.6468999666 
2031	 12008.2026943693 
2032	 11922.8724412839 
2033	 11852.6898968407 
2034	 11787.9838608151 
2035	 11728.6745090924 
2036	 11672.8310807508 
2037	 11606.43873157 
2038	 11541.8198538206 
2039	 11471.7821826959 
2040	 11408.1565183984 
2041	 11351.800243119 
2042	 11288.7774942889 
2043	 11218.5757683118 
2044	 11160.6468183117 
2045	 11104.0626462879 
2046	 11049.4011025526 
2047	 11012.8230994468 
2048	 10963.1066343363 
2049	 10899.8172394215 
2050	 10850.139162075 
2051	 10804.0502792334 
2052	 10745.5442193677 
2053	 10702.422452974 
2054	 10648.3924468055 
2055	 10588.3236653476 
2056	 10538.2260515863 
2057	 10495.1191039595 
2058	 10456.93128301 
2059	 10419.8522740378 
2060	 10396.1904084945 
2061	 10355.5582178274 
2062	 10304.3379622336 
2063	 10258.7188437947 
2064	 10209.1790557757 
2065	 10159.8955543665 
2066	 10114.1301741842 
2067	 10079.8742825736 
2068	 10033.0203485295 
2069	 9980.8695257599 
2070	 9933.66425539613 
2071	 9873.91280662675 
2072	 9820.92711677574 
2073	 9770.64668607681 
2074	 9713.32966296626 
2075	 9665.05109447477 
2076	 9611.12992596264 
2077	 9548.01535464834 
2078	 9496.738202121 
2079	 9450.66227954218 
2080	 9400.54907908471 
2081	 9350.64304307999 
2082	 9313.01938017969 
2083	 9272.52751800219 
2084	 9231.02357435256 
2085	 9194.2730933279 
2086	 9155.83153841375 
2087	 9102.22147024906 
2088	 9048.79583603906 
2089	 9002.5912761919 
2090	 8947.07728369877 
2091	 8900.69247580459 
2092	 8860.94742200563 
2093	 8806.03850565632 
2094	 8756.69329572395 
2095	 8707.43412722801 
2096	 8651.74021718089 
2097	 8598.57157247603 
2098	 8552.18251985885 
2099	 8499.03521840413 
2100	 8440.69887469514 
2101	 8390.69779650331 
2102	 8327.03072398923 
2103	 8270.78293686236 
2104	 8205.22184820681 
2105	 8138.22189703286 
2106	 8078.38189148054 
2107	 8008.64804168887 
2108	 7951.80138212261 
2109	 7891.22113819032 
2110	 7826.59138231529 
2111	 7765.16972183274 
2112	 7698.84642640969 
2113	 7637.40549613659 
2114	 7580.4698262558 
2115	 7531.75052491081 
2116	 7478.0636466282 
2117	 7425.69240573401 
2118	 7371.90683743278 
2119	 7315.69129995167 
2120	 7258.95005806118 
2121	 7205.49407627464 
2122	 7152.30583373811 
2123	 7109.60477392405 
2124	 7069.12726342092 
2125	 7020.97328365237 
2126	 6980.10106372399 
2127	 6920.66936424068 
2128	 6857.82704008497 
2129	 6809.74646794359 
2130	 6759.02962739208 
2131	 6722.42701468014 
2132	 6691.61735551023 
2133	 6653.62202393723 
2134	 6618.48454352073 
2135	 6583.02773370076 
2136	 6544.61772546729 
2137	 6509.00886718119 
2138	 6474.89809568713 
2139	 6438.59205310418 
2140	 6402.91959528447 
2141	 6363.33706653829 
2142	 6326.5030478461 
2143	 6311.19754791685 
2144	 6299.40825649379 
2145	 6298.33121296648 
2146	 6297.86946852838 
2147	 6297.88169488575 
2148	 6303.04729548083 
2149	 6310.14028779505 
2150	 6331.83234530563 
2151	 6351.13215550542 
2152	 6376.57821138416 
2153	 6408.59387755368 
2154	 6437.62134902453 
2155	 6481.60801360722 
2156	 6524.31963199496 
2157	 6569.43127316447 
2158	 6613.71813130363 
2159	 6655.62527704637 
2160	 6700.03801663119 
2161	 6749.72272856798 
2162	 6794.25279596537 
2163	 6841.90831112246 
2164	 6880.81691744752 
2165	 6910.96256782912 
2166	 6922.54371151876 
2167	 6926.1121423729 
2168	 6940.99789430563 
2169	 6954.43965418111 
2170	 6974.56401590727 
2171	 6995.69135342437 
2172	 7022.52747961889 
2173	 7047.41626097543 
2174	 7058.99162168693 
2175	 7080.26082030107 
2176	 7091.59952378429 
2177	 7105.50653161235 
2178	 7138.47201897095 
2179	 7177.53237826574 
2180	 7226.71098963396 
2181	 7267.22301747548 
2182	 7306.73576070197 
2183	 7335.4892007512 
2184	 7352.67146252923 
2185	 7358.80431335085 
2186	 7358.00135445757 
2187	 7346.65743194165 
2188	 7320.6956567575 
2189	 7292.36962419741 
2190	 7267.15286982754 
2191	 7242.88857557192 
2192	 7220.00312234667 
2193	 7207.32017337532 
2194	 7189.158329902 
2195	 7158.87975738698 
2196	 7127.14687408051 
2197	 7095.32908653466 
2198	 7067.04672145667 
2199	 7053.89927232661 
2200	 7046.91272843546 
2201	 7033.71347371742 
2202	 7027.33392394889 
2203	 7010.90900783175 
2204	 6995.14849261008 
2205	 6991.34614730077 
2206	 6974.5383744044 
2207	 6970.61193576231 
2208	 6973.86323269353 
2209	 6969.72658196677 
2210	 6961.03330960385 
2211	 6948.29482346225 
2212	 6935.28333080796 
2213	 6918.52544670086 
2214	 6898.90606112983 
2215	 6886.81665691146 
2216	 6863.06068701077 
2217	 6824.23410310901 
2218	 6790.8803743912 
2219	 6753.42720316619 
2220	 6720.57978689329 
2221	 6690.85759086458 
2222	 6651.92702043191 
2223	 6621.18705437588 
2224	 6587.68697139209 
2225	 6551.7930326135 
2226	 6524.2925327055 
2227	 6486.67870899542 
2228	 6442.80917103478 
2229	 6389.83592953489 
2230	 6340.95462618967 
2231	 6305.6595972941 
2232	 6265.35591653366 
2233	 6242.72101623725 
2234	 6213.48689328016 
2235	 6167.46141645032 
2236	 6123.52139082192 
2237	 6058.82968810256 
2238	 5999.84988544081 
2239	 5943.98666416577 
2240	 5890.80192191285 
2241	 5854.61657910523 
2242	 5816.02439669488 
2243	 5780.51789807213 
2244	 5752.84775906389 
2245	 5717.64288809313 
2246	 5679.87620638863 
2247	 5644.72787686643 
2248	 5606.99564349176 
2249	 5571.32845279069 
2250	 5536.01459124354 
2251	 5502.46333977391 
2252	 5472.61874202182 
2253	 5443.54943839128 
2254	 5416.5868963606 
2255	 5392.71299470625 
2256	 5371.99286114392 
2257	 5339.99614303565 
2258	 5327.01078837245 
2259	 5311.20722320592 
2260	 5293.63131607197 
2261	 5271.86892111585 
2262	 5230.51843725387 
2263	 5192.04576890563 
2264	 5158.4666458992 
2265	 5133.92440090588 
2266	 5112.43580907616 
2267	 5072.47907226381 
2268	 5031.64525980555 
2269	 4989.63428739843 
2270	 4950.48279316872 
2271	 4927.04613961341 
2272	 4893.45166275103 
2273	 4852.59345193896 
2274	 4810.56440872863 
2275	 4765.56553770023 
2276	 4729.82032902487 
2277	 4701.62841811025 
2278	 4668.99686820504 
2279	 4633.56751882872 
2280	 4592.63854250014 
2281	 4542.99215288774 
2282	 4510.21428455127 
2283	 4483.44506324689 
2284	 4458.78517562536 
2285	 4445.83528128617 
2286	 4418.91833314162 
2287	 4380.52827322343 
2288	 4352.23206123276 
2289	 4320.75274260249 
2290	 4290.07714432168 
2291	 4268.84962132809 
2292	 4238.25077864087 
2293	 4203.10124233833 
2294	 4166.10976961024 
2295	 4119.19939176812 
2296	 4084.55449058416 
2297	 4050.56217505921 
2298	 4021.21407050675 
2299	 4009.96318464399 
2300	 3984.57285221517 
2301	 3947.52274727009 
2302	 3920.76876162472 
2303	 3888.66175985001 
2304	 3865.36778788489 
2305	 3860.21623925581 
2306	 3844.12867434887 
2307	 3829.71077808179 
2308	 3808.6866981982 
2309	 3779.92476538339 
2310	 3745.05431727998 
2311	 3725.16340199147 
2312	 3699.55146563154 
2313	 3682.92220889488 
2314	 3670.77542428985 
2315	 3636.18701144101 
2316	 3605.47545494997 
2317	 3559.49799709014 
2318	 3511.94668600698 
2319	 3480.16046450996 
2320	 3439.74232523641 
2321	 3426.81842479587 
2322	 3403.72303966655 
2323	 3368.06206957121 
2324	 3348.9225001278 
2325	 3301.27558173137 
2326	 3268.91765793829 
2327	 3249.11341787255 
2328	 3215.01003725202 
2329	 3191.84469846371 
2330	 3157.42905032008 
2331	 3117.46740484888 
2332	 3080.25109936833 
2333	 3046.3086837035 
2334	 3011.88917973951 
2335	 2977.87970641701 
2336	 2948.95553586722 
2337	 2914.76719697472 
2338	 2889.02832326122 
2339	 2865.91995242989 
2340	 2841.84911389213 
2341	 2820.08705418005 
2342	 2800.95771885554 
2343	 2782.41308387578 
2344	 2753.11033568571 
2345	 2721.19642783685 
2346	 2682.97919144838 
2347	 2640.01542154995 
2348	 2619.93277493592 
2349	 2602.59558069813 
2350	 2583.60096969576 
2351	 2577.91993614797 
2352	 2553.39399686026 
2353	 2530.3373907389 
2354	 2509.94979691273 
2355	 2485.33681053993 
2356	 2464.347055316 
2357	 2440.13989897754 
2358	 2425.0115391918 
2359	 2390.54758771678 
2360	 2356.65371825611 
2361	 2330.92003642016 
2362	 2295.25405094736 
2363	 2271.46480864545 
2364	 2247.83213317456 
2365	 2223.61150125316 
2366	 2199.75513655043 
2367	 2175.45055779481 
2368	 2148.68052765733 
2369	 2111.87166693127 
2370	 2076.07545809806 
2371	 2052.52975693789 
2372	 2037.6375073186 
2373	 2030.56327866251 
2374	 2031.39650355131 
2375	 2022.8919556895 
2376	 2005.93807031189 
2377	 1980.85293900186 
2378	 1946.81558144105 
2379	 1917.81666317328 
2380	 1893.31638288946 
2381	 1877.11884731195 
2382	 1866.80889972123 
2383	 1847.78836334525 
2384	 1831.95290070793 
2385	 1815.77322365326 
2386	 1800.8975859168 
2387	 1791.14516605393 
2388	 1769.83631595916 
2389	 1755.35952319909 
2390	 1739.40199827916 
2391	 1724.70196017009 
2392	 1718.60923496701 
2393	 1700.17417274495 
2394	 1679.06676941409 
2395	 1656.7384609945 
2396	 1636.77327299544 
2397	 1614.74350921691 
2398	 1598.96857609712 
2399	 1593.35287271813 
2400	 1576.43058718974 
2401	 1566.32853184398 
2402	 1555.9027418162 
2403	 1527.78981262181 
2404	 1507.88507764404 
2405	 1494.97473435657 
2406	 1480.75584473334 
2407	 1472.12520630094 
2408	 1462.41562045446 
2409	 1450.21012810958 
2410	 1436.7401274098 
2411	 1427.82121207176 
2412	 1415.19343993742 
2413	 1394.24185378742 
2414	 1372.79936159909 
2415	 1342.06788464689 
2416	 1310.42192893577 
2417	 1291.09960698874 
2418	 1277.70740963041 
2419	 1265.09387038937 
2420	 1261.81281182461 
2421	 1255.58380150772 
2422	 1239.51174768014 
2423	 1229.99150892775 
2424	 1215.50890284432 
2425	 1194.25138474156 
2426	 1174.97377671407 
2427	 1161.08035710157 
2428	 1153.30257608652 
2429	 1147.37271134832 
2430	 1154.22265127389 
2431	 1153.79803009555 
2432	 1136.67044576002 
2433	 1127.79524088995 
2434	 1102.01289447004 
2435	 1067.17731319399 
2436	 1058.32311551788 
2437	 1045.06465491213 
2438	 1035.730140433 
2439	 1041.89272779568 
2440	 1043.65532935379 
2441	 1038.04020691624 
2442	 1031.80225329137 
2443	 1032.04728131181 
2444	 1016.06072222494 
2445	 1003.65588033511 
2446	 999.434800599122 
2447	 982.690127301838 
2448	 969.913954867737 
2449	 960.447940128276 
2450	 937.966212605467 
2451	 911.092258281854 
2452	 892.625308989488 
2453	 867.135426705692 
2454	 859.898148897009 
2455	 869.75457050062 
2456	 871.681040493267 
2457	 879.050510010615 
2458	 880.890821123764 
2459	 870.38823490347 
2460	 857.93569893514 
2461	 841.869478979149 
2462	 821.913441422585 
2463	 805.341444240628 
2464	 783.048504640697 
2465	 764.937312897404 
2466	 754.385108999365 
2467	 749.101302127473 
2468	 750.109273579922 
2469	 743.519766586895 
2470	 733.556206064145 
2471	 725.954731884959 
2472	 726.088204333024 
2473	 725.615384054498 
2474	 731.518617385863 
2475	 735.429421693491 
2476	 725.714308905624 
2477	 714.364775243041 
2478	 709.306177416208 
2479	 705.947407250398 
2480	 707.462423133731 
2481	 714.902207607159 
2482	 708.366996331053 
2483	 695.903414668766 
2484	 681.066483386267 
2485	 665.461675037316 
2486	 653.39899401369 
2487	 640.823677261289 
2488	 631.634762197755 
2489	 615.093150300798 
2490	 605.04044524681 
2491	 593.952047725377 
2492	 574.15699999545 
2493	 570.248795975677 
2494	 556.480810303885 
2495	 537.18603305055 
2496	 529.781518226281 
2497	 509.966315212104 
2498	 495.450237084393 
2499	 486.710152907001 
2500	 469.897888193059 
