Wavelength	1mm_BluePLA00000.asd
350	 1.53249555034482 
351	 2.97235709561773 
352	 3.00326975152316 
353	 0.594018272857593 
354	 0.74997014676159 
355	 2.01837052674807 
356	 2.4018674031625 
357	 1.62267770060844 
358	 1.79224593152873 
359	 2.91313013120672 
360	 3.21315091134709 
361	 2.95144987850091 
362	 2.4366781593316 
363	 1.95315589172457 
364	 1.32008953223093 
365	 1.11690142813909 
366	 1.35967923870548 
367	 1.28343717956379 
368	 3.24031897161954 
369	 4.73829123158058 
370	 2.74087066688903 
371	 2.1724600818047 
372	 2.07513998251988 
373	 1.63909483810317 
374	 1.17828620166984 
375	 1.66239978091109 
376	 2.41875722212741 
377	 2.12454359540612 
378	 3.3007644313255 
379	 3.72315616476274 
380	 2.28034763455377 
381	 3.31199039554527 
382	 3.5503514114082 
383	 2.84636002689594 
384	 3.67586270538154 
385	 4.96964068639593 
386	 6.05025911357484 
387	 6.45930920057666 
388	 6.40762601705313 
389	 6.79380539453445 
390	 7.67521527460398 
391	 7.80111928374992 
392	 7.66770240439578 
393	 7.96982240980976 
394	 9.27855953875668 
395	 9.48370635701238 
396	 10.3195645471981 
397	 12.5167674047455 
398	 12.9130145805185 
399	 13.741070973693 
400	 15.2250915700503 
401	 16.1826976783236 
402	 19.1245693961279 
403	 22.1421932007383 
404	 23.4052869540054 
405	 26.7259178843733 
406	 29.2323243551452 
407	 30.4381323660866 
408	 33.8223217152988 
409	 38.2573404882124 
410	 42.9361387219227 
411	 47.092248343095 
412	 50.8279129091714 
413	 55.0890902559013 
414	 60.5372727900391 
415	 67.0011866790883 
416	 72.5939174647686 
417	 77.6376644726331 
418	 84.4345813105402 
419	 90.916095019793 
420	 97.5396755444701 
421	 105.21244305717 
422	 113.410373561393 
423	 121.931602557321 
424	 130.484918774892 
425	 138.439254957445 
426	 146.795157712701 
427	 155.830819075708 
428	 165.29852946501 
429	 172.753914536302 
430	 179.930159438964 
431	 188.348959860773 
432	 195.664722931868 
433	 202.562297753994 
434	 209.371000442895 
435	 215.917806098664 
436	 222.474385116124 
437	 228.226910101145 
438	 232.269850660429 
439	 237.0222410469 
440	 241.34294729527 
441	 244.605326857534 
442	 248.963787148187 
443	 252.241594766591 
444	 254.66197732485 
445	 258.599870104307 
446	 261.49749463713 
447	 263.103163236354 
448	 264.014979087877 
449	 265.509540706949 
450	 267.306503849398 
451	 268.943074090956 
452	 269.789803305574 
453	 270.757403905716 
454	 272.055669682089 
455	 273.418994404882 
456	 273.895158829601 
457	 274.601829366363 
458	 276.467718279038 
459	 277.023955407172 
460	 276.841827900784 
461	 276.627703539056 
462	 277.155128222247 
463	 277.678531662588 
464	 277.868668707088 
465	 277.663872414468 
466	 278.779349791 
467	 279.689863245672 
468	 279.018673503009 
469	 278.630755654057 
470	 278.808463964248 
471	 279.364774379237 
472	 279.389948110575 
473	 280.362490423575 
474	 281.208642952837 
475	 279.987483474753 
476	 280.893361701837 
477	 282.438997871017 
478	 282.8689855439 
479	 283.202142599142 
480	 283.786506258369 
481	 284.499145689242 
482	 284.436025322557 
483	 286.113773883385 
484	 288.320501290227 
485	 288.392644642557 
486	 288.022286185874 
487	 287.81510182107 
488	 287.907205029377 
489	 287.327059126372 
490	 287.108408340103 
491	 287.519576313633 
492	 287.893465444442 
493	 287.762877932686 
494	 286.883433861084 
495	 285.331421804879 
496	 284.937657109946 
497	 285.179565320081 
498	 284.635503956711 
499	 279.660385813989 
500	 276.727587067899 
501	 277.185342110426 
502	 275.929540303792 
503	 273.746574972084 
504	 271.263292198734 
505	 269.291500665666 
506	 268.090574191488 
507	 266.974788739471 
508	 265.671708009323 
509	 266.179514092611 
510	 265.415460406832 
511	 262.931060751903 
512	 261.783396489422 
513	 260.885558321151 
514	 259.959482546548 
515	 258.950823084014 
516	 257.788271735181 
517	 257.593864045961 
518	 258.549277253985 
519	 256.764884205737 
520	 254.694782223213 
521	 253.848864795416 
522	 254.72234086105 
523	 253.234743474073 
524	 250.123640638822 
525	 248.309132736331 
526	 245.435517707484 
527	 241.983494145128 
528	 238.667547495369 
529	 235.182458316594 
530	 231.059014808022 
531	 226.295621327815 
532	 221.717513156523 
533	 216.276727560739 
534	 210.031770851029 
535	 203.661415551368 
536	 198.310468797147 
537	 192.607532446128 
538	 185.504925915327 
539	 179.878304657338 
540	 175.278772905585 
541	 170.70554633446 
542	 163.938021364499 
543	 159.151697217776 
544	 156.12122414974 
545	 151.950385125642 
546	 146.620991353138 
547	 141.714299372394 
548	 138.845572693822 
549	 137.28766234403 
550	 135.513433847046 
551	 132.828039129682 
552	 130.12004220386 
553	 128.232220215905 
554	 126.958719559558 
555	 125.243877326109 
556	 124.396407908796 
557	 124.742075692173 
558	 125.960547763307 
559	 125.714459058014 
560	 124.666381336677 
561	 123.718923959608 
562	 123.763848819227 
563	 123.265666690275 
564	 121.812137999554 
565	 119.980118700652 
566	 117.469334449022 
567	 115.068953962658 
568	 113.518996351828 
569	 109.877675076085 
570	 105.428058259545 
571	 101.508637015586 
572	 98.2615064769405 
573	 93.2147503766882 
574	 86.7193874080152 
575	 82.718426928205 
576	 76.7772096951974 
577	 70.4062447155403 
578	 67.0844794449707 
579	 62.3773212535888 
580	 57.6803217648179 
581	 54.5152920946425 
582	 51.41399523052 
583	 47.6761517391112 
584	 43.6358593066896 
585	 41.3334116832615 
586	 38.9384840238682 
587	 36.2955617164596 
588	 34.0194463926186 
589	 31.7390152226875 
590	 30.2200935025883 
591	 29.9581521753157 
592	 29.1747637950874 
593	 28.5163775431123 
594	 28.2649465670207 
595	 27.8749248728936 
596	 26.5584471809225 
597	 24.9983566340237 
598	 24.9884882330232 
599	 26.6032318461834 
600	 28.2125231943065 
601	 28.2879948594167 
602	 29.2930047734541 
603	 31.3998069308789 
604	 34.0829555009805 
605	 35.424649598881 
606	 38.1764045952855 
607	 42.1594441689509 
608	 44.4949792245422 
609	 48.7676790472066 
610	 53.4892901175173 
611	 56.0226338335331 
612	 59.6747177028159 
613	 63.6833802778214 
614	 67.0735890631252 
615	 69.6557583330829 
616	 72.8897209378756 
617	 76.2226577739482 
618	 76.4277174627424 
619	 76.4957542214909 
620	 77.0354808772415 
621	 77.6401003582611 
622	 77.27007850854 
623	 76.0512122863074 
624	 74.2183036963989 
625	 71.2713057667431 
626	 68.8251615282124 
627	 67.0002734766103 
628	 63.3188775126799 
629	 59.506902964326 
630	 56.5357913963776 
631	 55.0222106646297 
632	 52.7288276764685 
633	 49.3301864388661 
634	 45.3564339193637 
635	 42.9217968164225 
636	 41.2579448499771 
637	 39.6651002912033 
638	 37.9219701044161 
639	 36.0819250516592 
640	 34.6366379435865 
641	 34.4531997889088 
642	 34.5367921066615 
643	 33.976293137032 
644	 32.3776421653032 
645	 32.5454213329992 
646	 33.1549052353666 
647	 33.718777940006 
648	 37.2515516500203 
649	 40.1371519049374 
650	 41.7912518782568 
651	 44.3978978836942 
652	 50.1301356645832 
653	 58.1691840563332 
654	 66.6429373353222 
655	 76.3817010769059 
656	 88.4713093088633 
657	 103.867450243699 
658	 123.04701735219 
659	 145.285117183276 
660	 171.198473395242 
661	 203.293615930871 
662	 239.192961147351 
663	 279.973454884468 
664	 328.018853320007 
665	 381.391696316203 
666	 441.493352987991 
667	 509.458402381786 
668	 583.23872574427 
669	 663.48322130304 
670	 750.798707177265 
671	 846.019884984518 
672	 945.814019069106 
673	 1050.40993830091 
674	 1161.98681486462 
675	 1279.67174041367 
676	 1402.56308228186 
677	 1530.25827859028 
678	 1665.27103461093 
679	 1804.41936550718 
680	 1946.02529481204 
681	 2091.80632380752 
682	 2240.63642605561 
683	 2391.92583284851 
684	 2545.33339534135 
685	 2700.23927628671 
686	 2856.20340687821 
687	 3012.60614821068 
688	 3167.58275211957 
689	 3321.2507615087 
690	 3473.54278433258 
691	 3623.57521956301 
692	 3771.02429952285 
693	 3915.50922067095 
694	 4056.63158573733 
695	 4191.79064860811 
696	 4322.09060307825 
697	 4449.32618271841 
698	 4570.2794941464 
699	 4687.83116366641 
700	 4802.46389084124 
701	 4906.17411093601 
702	 5006.68361384235 
703	 5105.59613179892 
704	 5198.71058565466 
705	 5288.7985556901 
706	 5373.02995743797 
707	 5448.19402071762 
708	 5525.39255207499 
709	 5598.64511076371 
710	 5663.85334726347 
711	 5729.10418783701 
712	 5790.87556682566 
713	 5847.97988890881 
714	 5901.63193201482 
715	 5953.15467100474 
716	 6002.89149068932 
717	 6050.73447050391 
718	 6097.11123452602 
719	 6141.14422920576 
720	 6182.24588115843 
721	 6221.48475461509 
722	 6257.21697870292 
723	 6289.99284505574 
724	 6323.13111806606 
725	 6356.51612676254 
726	 6390.04028935003 
727	 6423.14901837192 
728	 6452.97624463963 
729	 6481.11783554243 
730	 6509.48752032614 
731	 6538.27944967976 
732	 6567.73820859512 
733	 6597.35834389274 
734	 6625.7146609638 
735	 6651.51629941967 
736	 6675.68060956793 
737	 6700.02000259214 
738	 6722.43344755798 
739	 6743.56281446517 
740	 6763.98929435941 
741	 6782.49219227741 
742	 6799.80905635735 
743	 6815.84913484143 
744	 6829.10270494919 
745	 6843.95920809526 
746	 6858.5767589861 
747	 6868.9726803224 
748	 6881.96882413631 
749	 6893.76109931876 
750	 6901.21822602161 
751	 6909.5356445642 
752	 6916.00577675625 
753	 6920.47989415051 
754	 6926.3204358309 
755	 6931.24914851463 
756	 6934.30667233254 
757	 6934.89131597519 
758	 6932.34170112746 
759	 6924.42798637268 
760	 6912.72456168714 
761	 6911.34599361789 
762	 6913.05316522332 
763	 6914.05738136627 
764	 6914.50592350681 
765	 6913.98903150015 
766	 6911.80885979029 
767	 6907.1224309816 
768	 6898.0399490017 
769	 6889.73822455944 
770	 6884.69394083599 
771	 6875.06150333961 
772	 6864.44611629583 
773	 6854.11399573327 
774	 6843.1194375981 
775	 6830.84406421748 
776	 6819.04230574954 
777	 6809.35677092811 
778	 6796.01365052943 
779	 6780.50182779953 
780	 6764.35414719432 
781	 6747.05956921458 
782	 6729.00494622999 
783	 6710.8478718657 
784	 6693.49474953686 
785	 6674.02111946504 
786	 6653.09324576697 
787	 6632.43281709118 
788	 6613.53208305445 
789	 6592.36174279888 
790	 6568.20880867487 
791	 6548.41997870329 
792	 6525.98907465581 
793	 6500.31881503688 
794	 6474.63427058246 
795	 6448.63754121498 
796	 6422.84963351543 
797	 6397.62331390989 
798	 6372.24558955178 
799	 6346.96995118052 
800	 6321.80660874095 
801	 6296.4069756523 
802	 6269.77782319138 
803	 6242.99273312951 
804	 6217.98067154959 
805	 6193.64047829828 
806	 6167.58551524582 
807	 6138.62885783564 
808	 6109.71033444191 
809	 6080.90319122327 
810	 6052.20901893912 
811	 6023.54446573562 
812	 5995.08278536222 
813	 5966.46861324773 
814	 5937.25944296495 
815	 5907.63120419982 
816	 5878.65784793119 
817	 5850.52067869771 
818	 5821.42495035283 
819	 5790.88383191491 
820	 5759.40172283335 
821	 5728.21006118906 
822	 5695.34564635268 
823	 5662.93205520454 
824	 5632.63225318562 
825	 5599.70729880951 
826	 5569.64489274327 
827	 5543.08386145058 
828	 5513.33105284588 
829	 5481.69089554028 
830	 5448.29344764568 
831	 5413.02346946156 
832	 5375.04331564081 
833	 5335.04691801599 
834	 5295.03497939572 
835	 5259.72739098551 
836	 5227.962005613 
837	 5199.80314016759 
838	 5176.10504486162 
839	 5154.97916705819 
840	 5135.00039492778 
841	 5114.37895714119 
842	 5089.29846252794 
843	 5060.95775680386 
844	 5031.16386647781 
845	 5002.30069670013 
846	 4974.04340834594 
847	 4945.06662072671 
848	 4913.70642077804 
849	 4880.90733538315 
850	 4849.10096375518 
851	 4819.48846507038 
852	 4790.00782680771 
853	 4760.15309804115 
854	 4729.92934771623 
855	 4699.7874665146 
856	 4669.13937444693 
857	 4639.41084523857 
858	 4611.16343111079 
859	 4579.43299918353 
860	 4548.58552346898 
861	 4519.66168485051 
862	 4489.17479734061 
863	 4458.65526391302 
864	 4428.45275875211 
865	 4398.4987280682 
866	 4368.15465226588 
867	 4337.63630034661 
868	 4307.38196843116 
869	 4278.10054570735 
870	 4249.95403272913 
871	 4221.91309061384 
872	 4192.4471301886 
873	 4163.58782206159 
874	 4133.65790226613 
875	 4101.90191028035 
876	 4071.78782299267 
877	 4041.80869097671 
878	 4010.99880912814 
879	 3978.85872411982 
880	 3948.48127777761 
881	 3918.69380707917 
882	 3887.82167841899 
883	 3856.47224140967 
884	 3825.78044031018 
885	 3795.30164237305 
886	 3762.71234162424 
887	 3729.79283178545 
888	 3696.39639653517 
889	 3662.20988106597 
890	 3628.82070192055 
891	 3597.67510249298 
892	 3568.17443353316 
893	 3536.47316161126 
894	 3505.32340962689 
895	 3475.59820401819 
896	 3447.31785521295 
897	 3419.21982951981 
898	 3391.11631534025 
899	 3363.89558182783 
900	 3340.69609996359 
901	 3317.5127438327 
902	 3294.64627007235 
903	 3274.06202509808 
904	 3252.34381229027 
905	 3232.41010631164 
906	 3214.75281977447 
907	 3192.11085254621 
908	 3167.72289691035 
909	 3143.45218630939 
910	 3120.24993172459 
911	 3094.31292380643 
912	 3067.75145692922 
913	 3042.66965683658 
914	 3018.72857313619 
915	 2993.95897446428 
916	 2967.98875543484 
917	 2941.69402999638 
918	 2917.01768706086 
919	 2892.25029302772 
920	 2865.91746209005 
921	 2839.23433397538 
922	 2812.45505116317 
923	 2786.14434313096 
924	 2760.9605449402 
925	 2735.23868438336 
926	 2709.51481152208 
927	 2684.28807139297 
928	 2658.72969082445 
929	 2632.18373239503 
930	 2604.72260238736 
931	 2576.98949443249 
932	 2548.92285239661 
933	 2520.60373342895 
934	 2492.60517063026 
935	 2467.08696330329 
936	 2441.29120868811 
937	 2415.80777128028 
938	 2393.23655240629 
939	 2367.50769279922 
940	 2341.42789571132 
941	 2317.33627456363 
942	 2291.57981527135 
943	 2266.05327699977 
944	 2240.84058863291 
945	 2215.06996871169 
946	 2190.85543720846 
947	 2167.01756242784 
948	 2142.655179625 
949	 2118.92032638347 
950	 2095.09594681688 
951	 2071.37531089875 
952	 2048.20031875656 
953	 2023.12770732917 
954	 1999.62363623238 
955	 1978.60131299628 
956	 1953.68726730333 
957	 1931.47859023221 
958	 1909.90917804109 
959	 1884.20750460409 
960	 1858.95635234879 
961	 1835.51809503618 
962	 1813.03277545034 
963	 1787.44655244364 
964	 1763.48268290901 
965	 1740.65643541651 
966	 2808.17444750973 
967	 2839.28428926939 
968	 2872.23736869545 
969	 2910.42303654006 
970	 2953.80489306215 
971	 2998.94434131628 
972	 3051.1510330494 
973	 3099.18497175397 
974	 3148.51536035427 
975	 3196.62099017433 
976	 3243.67145431016 
977	 3287.84637853143 
978	 3333.37339022102 
979	 3382.76965472585 
980	 3432.27610706636 
981	 3479.82332220045 
982	 3522.78760662174 
983	 3564.76113603877 
984	 3600.56541356727 
985	 3632.23906239649 
986	 3664.96773279619 
987	 3696.43247606834 
988	 3726.47961161929 
989	 3755.57350005294 
990	 3784.9804718809 
991	 3815.0247311596 
992	 3841.77429025881 
993	 3865.70171272945 
994	 3890.52658344579 
995	 3916.49932465538 
996	 3944.53734529704 
997	 3977.93681832592 
998	 4008.1099530565 
999	 4035.92156679603 
1000	 4063.39040835033 
1001	 4090.01560875569 
1002	 4119.85219825813 
1003	 4149.24672976278 
1004	 4176.43731864634 
1005	 4204.94967784883 
1006	 4233.80197407808 
1007	 4262.55059939072 
1008	 4292.29530299054 
1009	 4320.19394720398 
1010	 4346.10980352778 
1011	 4373.22442381529 
1012	 4398.54421752084 
1013	 4427.67337836781 
1014	 4457.15765489654 
1015	 4483.27764188728 
1016	 4510.79823091377 
1017	 4538.01285933974 
1018	 4567.56011804271 
1019	 4598.34298676658 
1020	 4623.02646439305 
1021	 4645.6273841441 
1022	 4670.01308360507 
1023	 4694.15674601495 
1024	 4716.36533448212 
1025	 4743.76357144091 
1026	 4771.01438880651 
1027	 4794.76540688326 
1028	 4823.23145844048 
1029	 4851.30148361991 
1030	 4879.57308953569 
1031	 4907.57766045688 
1032	 4932.37085045696 
1033	 4957.99484663139 
1034	 4984.16169295627 
1035	 5013.27208980571 
1036	 5043.96441311711 
1037	 5071.60736451504 
1038	 5096.52780454041 
1039	 5122.78125226997 
1040	 5148.26485781782 
1041	 5169.65724056883 
1042	 5195.64283692148 
1043	 5225.23690182304 
1044	 5252.60768239912 
1045	 5279.70772069801 
1046	 5307.48517566093 
1047	 5329.79216851632 
1048	 5353.02841087311 
1049	 5375.4307926494 
1050	 5397.40994896772 
1051	 5420.43413389054 
1052	 5443.01281092175 
1053	 5467.14858058959 
1054	 5490.10782552618 
1055	 5511.75900937642 
1056	 5531.83363624835 
1057	 5551.66171709316 
1058	 5567.46071159153 
1059	 5588.51056044961 
1060	 5613.19898503935 
1061	 5635.71448105419 
1062	 5658.9604242676 
1063	 5682.556925085 
1064	 5705.07707029861 
1065	 5726.38657642387 
1066	 5749.26783603667 
1067	 5769.47021596018 
1068	 5787.53389971569 
1069	 5809.34804682034 
1070	 5832.53832932221 
1071	 5855.56768258956 
1072	 5880.06918006728 
1073	 5904.35635104063 
1074	 5930.0808173559 
1075	 5957.9721271429 
1076	 5982.57012509891 
1077	 6006.02750759276 
1078	 6031.66631015075 
1079	 6052.76739879344 
1080	 6080.07072057706 
1081	 6113.13101210189 
1082	 6145.8999618662 
1083	 6180.39083652702 
1084	 6217.04223911442 
1085	 6253.67517537065 
1086	 6286.50732240076 
1087	 6317.4252735569 
1088	 6349.72069516632 
1089	 6384.89314935834 
1090	 6423.60760914005 
1091	 6462.40400261045 
1092	 6503.00322245458 
1093	 6546.44699838863 
1094	 6589.83616175155 
1095	 6637.43377606069 
1096	 6692.32383400585 
1097	 6743.36701707984 
1098	 6793.42029267626 
1099	 6846.06764158869 
1100	 6896.59790683171 
1101	 6951.68989417174 
1102	 7012.20119151235 
1103	 7072.36257840515 
1104	 7133.23697050118 
1105	 7197.01242685662 
1106	 7263.83338551582 
1107	 7328.03094651316 
1108	 7395.21176222213 
1109	 7465.09540421934 
1110	 7534.13873049359 
1111	 7601.33342490102 
1112	 7674.65321623919 
1113	 7751.50617561298 
1114	 7827.8296455001 
1115	 7908.14952366452 
1116	 7986.83070315426 
1117	 8066.00237463191 
1118	 8142.69304927821 
1119	 8217.72052519198 
1120	 8294.47310714889 
1121	 8371.30093905861 
1122	 8446.24958370832 
1123	 8521.38049326306 
1124	 8596.88032248712 
1125	 8672.92928150349 
1126	 8744.51972282368 
1127	 8814.79032301785 
1128	 8885.52853518324 
1129	 8954.17767548314 
1130	 9016.71388094391 
1131	 9085.15362322284 
1132	 9156.8192481915 
1133	 9226.59155715815 
1134	 9296.28941999455 
1135	 9367.05865104633 
1136	 9435.21925721527 
1137	 9509.70306967983 
1138	 9588.92112697482 
1139	 9666.93908714982 
1140	 9752.31745641341 
1141	 9829.62495894837 
1142	 9904.85803093628 
1143	 9975.38721367468 
1144	 10045.0890317095 
1145	 10105.0307544132 
1146	 10158.1515468198 
1147	 10206.0567909415 
1148	 10247.388706901 
1149	 10280.5328918235 
1150	 10308.3751651093 
1151	 10332.0408101808 
1152	 10347.168400851 
1153	 10352.9746648621 
1154	 10356.0961434707 
1155	 10352.5133881349 
1156	 10347.0228351777 
1157	 10334.8667554577 
1158	 10324.6334396333 
1159	 10311.2293172999 
1160	 10299.5279450034 
1161	 10287.8533019729 
1162	 10277.0057368264 
1163	 10266.2131442185 
1164	 10256.4609813743 
1165	 10248.5108151682 
1166	 10239.5998767105 
1167	 10230.0026080852 
1168	 10220.2005968423 
1169	 10212.6219963979 
1170	 10212.5535455289 
1171	 10219.9666401295 
1172	 10233.5051761397 
1173	 10255.7087879638 
1174	 10283.0277350032 
1175	 10323.7058828688 
1176	 10370.0306638284 
1177	 10435.9296491652 
1178	 10516.5180991726 
1179	 10608.6150773495 
1180	 10721.0198297876 
1181	 10833.8607944037 
1182	 10957.9404129068 
1183	 11082.8037401334 
1184	 11218.6957224298 
1185	 11346.5383279473 
1186	 11481.3865677786 
1187	 11602.3587615337 
1188	 11717.4469708764 
1189	 11821.9057545464 
1190	 11916.010219052 
1191	 12001.880865196 
1192	 12080.677238963 
1193	 12149.0306973509 
1194	 12206.7904571995 
1195	 12262.6119275387 
1196	 12311.8755252179 
1197	 12351.3046662358 
1198	 12391.7936213652 
1199	 12429.0450210946 
1200	 12463.6091022668 
1201	 12494.2483547269 
1202	 12525.6771307241 
1203	 12553.3988931895 
1204	 12584.5974873053 
1205	 12617.9588134798 
1206	 12649.1726471985 
1207	 12682.5121530474 
1208	 12711.2780325912 
1209	 12733.6008364161 
1210	 12761.3854248181 
1211	 12789.4354080653 
1212	 12818.7991770118 
1213	 12851.3295556822 
1214	 12881.661879562 
1215	 12908.8250124217 
1216	 12933.6103021699 
1217	 12957.4093751717 
1218	 12983.1355473088 
1219	 13009.7653967928 
1220	 13038.4542476107 
1221	 13065.7580628093 
1222	 13094.6002578823 
1223	 13120.5891393342 
1224	 13144.0400583526 
1225	 13168.4628398766 
1226	 13194.1012517205 
1227	 13216.8031242882 
1228	 13237.9571482794 
1229	 13259.0396279392 
1230	 13278.1246231769 
1231	 13297.107867194 
1232	 13315.573018599 
1233	 13334.2688444834 
1234	 13353.6383115482 
1235	 13371.0380314985 
1236	 13387.5166423878 
1237	 13403.738678337 
1238	 13419.5255786063 
1239	 13433.9442794379 
1240	 13451.0775549248 
1241	 13468.6006643126 
1242	 13484.935976741 
1243	 13502.8419236017 
1244	 13523.0148265833 
1245	 13542.7328412606 
1246	 13560.7317406525 
1247	 13576.4331625117 
1248	 13591.4363458522 
1249	 13608.0108931218 
1250	 13628.0521955128 
1251	 13653.1903688295 
1252	 13676.9967107085 
1253	 13703.9587658064 
1254	 13726.3950297913 
1255	 13746.3108130537 
1256	 13767.2343497552 
1257	 13785.9008507251 
1258	 13805.6807244517 
1259	 13828.9990706161 
1260	 13848.7564371486 
1261	 13866.0730411702 
1262	 13882.9946216113 
1263	 13901.951206377 
1264	 13915.5050271921 
1265	 13932.0266437677 
1266	 13952.1866830536 
1267	 13966.7057012298 
1268	 13980.4133819517 
1269	 13990.7784880508 
1270	 13997.2925163848 
1271	 14002.1656083506 
1272	 14006.0430701946 
1273	 14007.1664628188 
1274	 14001.3136091278 
1275	 13991.6722773049 
1276	 13979.0948948474 
1277	 13965.0808974825 
1278	 13951.8668829295 
1279	 13935.821584698 
1280	 13918.5029998114 
1281	 13899.2110782848 
1282	 13876.6986714698 
1283	 13854.962171719 
1284	 13834.1558507409 
1285	 13810.1817832252 
1286	 13783.1369179461 
1287	 13757.306385815 
1288	 13729.8993137221 
1289	 13702.4016727058 
1290	 13677.4671047904 
1291	 13653.2211788466 
1292	 13629.8105486571 
1293	 13608.9736953179 
1294	 13589.2536763394 
1295	 13573.0655857334 
1296	 13557.5788917773 
1297	 13542.4537061798 
1298	 13532.2026268545 
1299	 13522.7535530117 
1300	 13517.2459779995 
1301	 13518.7978463547 
1302	 13523.0058247281 
1303	 13530.0629608843 
1304	 13539.2843656966 
1305	 13546.1875666431 
1306	 13554.5277338105 
1307	 13564.9875419033 
1308	 13575.4698651792 
1309	 13586.8467581005 
1310	 13598.4197688257 
1311	 13612.8155594736 
1312	 13626.8657438943 
1313	 13641.1397689914 
1314	 13656.7767455713 
1315	 13674.2515058579 
1316	 13688.7187678642 
1317	 13702.4750835808 
1318	 13717.4685082334 
1319	 13730.4835067545 
1320	 13746.4189456476 
1321	 13766.282162199 
1322	 13788.0083132366 
1323	 13815.2086131083 
1324	 13841.3087069226 
1325	 13867.6337036074 
1326	 13895.4586894424 
1327	 13921.8894830537 
1328	 13949.9758442872 
1329	 13981.2139903729 
1330	 14010.2109155463 
1331	 14034.5467963987 
1332	 14055.8061178939 
1333	 14071.3991533351 
1334	 14081.892280837 
1335	 14090.0745968332 
1336	 14089.6345436638 
1337	 14080.2609572514 
1338	 14066.2074602887 
1339	 14040.0436757115 
1340	 14009.1853016153 
1341	 13970.5232179535 
1342	 13923.737084882 
1343	 13875.9446351021 
1344	 13824.6466024767 
1345	 13776.9633908403 
1346	 13733.4685220555 
1347	 13695.2559767707 
1348	 13661.0685122099 
1349	 13633.4876153223 
1350	 13613.3827607635 
1351	 13594.4862877456 
1352	 13581.8365077882 
1353	 13566.7398485495 
1354	 13553.648045794 
1355	 13539.3198032299 
1356	 13519.7720082554 
1357	 13499.8222234059 
1358	 13477.6079277067 
1359	 13450.0958024029 
1360	 13420.9846832923 
1361	 13393.7697111037 
1362	 13367.4175501315 
1363	 13348.9909105178 
1364	 13338.0654945828 
1365	 13338.6215883805 
1366	 13351.6837921035 
1367	 13373.5603062954 
1368	 13410.3807709726 
1369	 13451.4483272995 
1370	 13501.3866270601 
1371	 13552.483896625 
1372	 13596.5963062708 
1373	 13638.0842093109 
1374	 13663.1735118369 
1375	 13674.9915363857 
1376	 13679.1471314277 
1377	 13670.1623907186 
1378	 13650.5345241575 
1379	 13628.8901638209 
1380	 13599.9616376902 
1381	 13574.6263347313 
1382	 13555.4243853303 
1383	 13540.5506145487 
1384	 13538.8238355642 
1385	 13543.9489099287 
1386	 13560.6261307884 
1387	 13587.3359439687 
1388	 13623.4511130018 
1389	 13666.5840482032 
1390	 13712.8952604432 
1391	 13768.3982533652 
1392	 13821.8488501058 
1393	 13876.0668777357 
1394	 13932.1752233094 
1395	 13990.3974383693 
1396	 14047.8137009711 
1397	 14107.2293923515 
1398	 14169.7415084481 
1399	 14231.9147394912 
1400	 14292.6109861937 
1401	 14352.8360412659 
1402	 14409.3510530941 
1403	 14463.7742516424 
1404	 14520.0845102352 
1405	 14572.615908772 
1406	 14624.7775280055 
1407	 14679.9309712795 
1408	 14735.2665892854 
1409	 14795.2771188464 
1410	 14855.4245792973 
1411	 14913.2527910216 
1412	 14973.3624648205 
1413	 15032.5666554136 
1414	 15094.8847940018 
1415	 15158.9172307372 
1416	 15215.5450156045 
1417	 15268.3149629111 
1418	 15320.4877807079 
1419	 15372.3669256632 
1420	 15426.4326664024 
1421	 15478.4173219947 
1422	 15521.9301595266 
1423	 15563.1528405687 
1424	 15601.4423343 
1425	 15635.311518786 
1426	 15666.5616461174 
1427	 15689.4589979231 
1428	 15705.3762780883 
1429	 15715.0462304691 
1430	 15721.0882340952 
1431	 15722.8325812738 
1432	 15718.1568280706 
1433	 15705.6303306363 
1434	 15689.1914692794 
1435	 15672.168522845 
1436	 15649.4201457547 
1437	 15627.011764275 
1438	 15606.331325049 
1439	 15583.0436422698 
1440	 15562.298199941 
1441	 15547.8382584568 
1442	 15537.2985123502 
1443	 15531.2789302046 
1444	 15527.8233745059 
1445	 15524.4760181159 
1446	 15519.805272924 
1447	 15521.4810190602 
1448	 15525.5762815968 
1449	 15534.64832197 
1450	 15551.8622000174 
1451	 15566.011974426 
1452	 15581.5596419342 
1453	 15596.2267110761 
1454	 15608.8842381582 
1455	 15618.914198673 
1456	 15628.8114475383 
1457	 15635.7311169277 
1458	 15642.6418786505 
1459	 15649.8079615381 
1460	 15654.4273412803 
1461	 15660.4817426387 
1462	 15665.0867166229 
1463	 15671.7457983197 
1464	 15681.3477952845 
1465	 15691.4444539062 
1466	 15701.8491605707 
1467	 15712.3336674435 
1468	 15722.3696884231 
1469	 15729.8414351992 
1470	 15740.2776469412 
1471	 15752.5660740136 
1472	 15763.7143120113 
1473	 15775.6961970591 
1474	 15786.5615575579 
1475	 15794.1787792068 
1476	 15799.3177862944 
1477	 15806.6784227357 
1478	 15813.5000593613 
1479	 15821.8163313432 
1480	 15835.4185889847 
1481	 15844.0579731406 
1482	 15851.8208955331 
1483	 15862.523224956 
1484	 15867.2787463408 
1485	 15871.7779783162 
1486	 15880.4631624228 
1487	 15886.9256395963 
1488	 15895.0319683816 
1489	 15907.0838279748 
1490	 15915.3554858905 
1491	 15918.5090607966 
1492	 15921.022819761 
1493	 15925.3684801257 
1494	 15931.2901258241 
1495	 15941.0099268692 
1496	 15950.670349406 
1497	 15954.6869068934 
1498	 15958.51332899 
1499	 15962.8479515339 
1500	 15968.6206099573 
1501	 15978.3046658656 
1502	 15984.3012203491 
1503	 15985.9146923533 
1504	 15986.0350521617 
1505	 15981.7975683348 
1506	 15976.0461391763 
1507	 15972.6821353363 
1508	 15965.621605515 
1509	 15957.0945498151 
1510	 15953.6105409115 
1511	 15948.3546585487 
1512	 15942.5703526261 
1513	 15935.6457111831 
1514	 15924.6162265507 
1515	 15912.3717233668 
1516	 15897.6654987744 
1517	 15883.8860685344 
1518	 15867.3150129287 
1519	 15848.3891165449 
1520	 15831.0755517215 
1521	 15810.2835275938 
1522	 15791.8848669841 
1523	 15776.2775923279 
1524	 15759.3839019941 
1525	 15746.0914538211 
1526	 15731.0502748627 
1527	 15713.1699537426 
1528	 15698.2054616623 
1529	 15680.7939453003 
1530	 15663.151042341 
1531	 15646.7932591547 
1532	 15624.7112721076 
1533	 15603.9908405511 
1534	 15585.6539325966 
1535	 15563.7183293031 
1536	 15545.4081798666 
1537	 15528.6590670952 
1538	 15506.1802747307 
1539	 15485.3668000243 
1540	 15466.1595393713 
1541	 15445.2087439885 
1542	 15430.8535432488 
1543	 15416.9337023876 
1544	 15400.9297986735 
1545	 15386.8138785515 
1546	 15366.3638917481 
1547	 15346.7380595308 
1548	 15330.7534317543 
1549	 15311.1767242065 
1550	 15295.0540572797 
1551	 15281.2337680849 
1552	 15265.4407622751 
1553	 15248.3086631321 
1554	 15228.9887824873 
1555	 15210.2246500693 
1556	 15191.1256398839 
1557	 15168.4561467418 
1558	 15144.1232254884 
1559	 15121.4413936901 
1560	 15095.5966559711 
1561	 15071.94121219 
1562	 15053.3781555966 
1563	 15030.0051175002 
1564	 15006.5776544458 
1565	 14982.4769633857 
1566	 14957.0928799749 
1567	 14933.9205126616 
1568	 14909.088464107 
1569	 14883.8750626988 
1570	 14855.1954902384 
1571	 14822.5652561425 
1572	 14789.1631297122 
1573	 14754.9922243153 
1574	 14722.1064910238 
1575	 14689.2581388988 
1576	 14655.8940137807 
1577	 14623.2919609211 
1578	 14588.2322298892 
1579	 14552.6463970149 
1580	 14516.1000660643 
1581	 14476.0382374813 
1582	 14438.8991289042 
1583	 14402.874181355 
1584	 14364.8464700294 
1585	 14326.9551716703 
1586	 14286.117542995 
1587	 14238.7647246302 
1588	 14189.8254173793 
1589	 14142.1260075449 
1590	 14093.0316867035 
1591	 14045.4768578628 
1592	 13996.5310189529 
1593	 13944.5536941126 
1594	 13891.5540243679 
1595	 13836.8776882509 
1596	 13781.7347800611 
1597	 13722.8540897483 
1598	 13661.964338585 
1599	 13599.9541911248 
1600	 13534.6593765652 
1601	 13468.8584612607 
1602	 13402.066060752 
1603	 13335.0567834479 
1604	 13266.0102723646 
1605	 13198.1918302156 
1606	 13134.1075081988 
1607	 13067.499906552 
1608	 13001.6778044264 
1609	 12940.4095453466 
1610	 12879.8722693918 
1611	 12819.8688443173 
1612	 12764.6284709149 
1613	 12711.7656434765 
1614	 12657.4520524043 
1615	 12607.6777495812 
1616	 12564.8927813971 
1617	 12522.2170951074 
1618	 12484.3360204351 
1619	 12448.8453202197 
1620	 12408.6033805944 
1621	 12368.9134854422 
1622	 12330.953864576 
1623	 12292.3873830016 
1624	 12251.9502479212 
1625	 12209.4131763187 
1626	 12163.1429690977 
1627	 12113.3838592502 
1628	 12064.4137115443 
1629	 12016.9941599027 
1630	 11968.3406688087 
1631	 11919.7349022614 
1632	 11871.1739351599 
1633	 11818.5469565614 
1634	 11761.5192271862 
1635	 11704.2779205898 
1636	 11643.0291411824 
1637	 11582.311882715 
1638	 11524.4440114461 
1639	 11461.3615160515 
1640	 11396.140669923 
1641	 11327.4380690597 
1642	 11256.1380137343 
1643	 11179.4736890495 
1644	 11100.946944655 
1645	 11013.9871934436 
1646	 10921.6568483918 
1647	 10821.3879787489 
1648	 10715.1467681953 
1649	 10598.4205874625 
1650	 10477.468178114 
1651	 10339.5465172609 
1652	 10193.6145127586 
1653	 10025.7944752606 
1654	 9840.19823654449 
1655	 9638.85392693011 
1656	 9419.71700741252 
1657	 9183.25376116766 
1658	 8931.58900621331 
1659	 8662.09717726766 
1660	 8367.36654883263 
1661	 8071.36679019597 
1662	 7755.54697453551 
1663	 7450.94895577321 
1664	 7137.86569507976 
1665	 6844.28574252829 
1666	 6552.86218015945 
1667	 6286.88537568095 
1668	 6033.07660831549 
1669	 5807.11472201992 
1670	 5602.38248272894 
1671	 5422.1072275716 
1672	 5268.01389424333 
1673	 5129.26910942165 
1674	 5015.97262009316 
1675	 4907.9805738644 
1676	 4816.68985978398 
1677	 4729.8015366633 
1678	 4650.1975390817 
1679	 4586.63120695963 
1680	 4529.07389038113 
1681	 4500.89926091943 
1682	 4489.75398455479 
1683	 4506.49160380564 
1684	 4544.81638490279 
1685	 4607.73280179651 
1686	 4690.31700750057 
1687	 4800.93033301421 
1688	 4910.33440857819 
1689	 5039.63877755464 
1690	 5156.76938782994 
1691	 5283.2989749727 
1692	 5383.40306548911 
1693	 5477.38866375696 
1694	 5539.94212158774 
1695	 5578.27418884498 
1696	 5589.45497593761 
1697	 5568.66237793737 
1698	 5531.81345467887 
1699	 5466.14005435712 
1700	 5391.29950759127 
1701	 5297.77105868891 
1702	 5196.83053375316 
1703	 5082.19251179262 
1704	 4961.08320827576 
1705	 4826.90349929957 
1706	 4693.81715927639 
1707	 4551.24573222469 
1708	 4414.54675877105 
1709	 4275.51894182082 
1710	 4145.29900093184 
1711	 4016.35460620233 
1712	 3898.83160910326 
1713	 3788.33423167515 
1714	 3688.46435169301 
1715	 3596.44812612172 
1716	 3517.20164738968 
1717	 3444.82208140269 
1718	 3394.89523531616 
1719	 3360.0934393069 
1720	 3340.4513881601 
1721	 3341.74015584415 
1722	 3348.18059523593 
1723	 3364.03013374901 
1724	 3396.28607894529 
1725	 3440.75649604508 
1726	 3500.90852574074 
1727	 3574.80266874012 
1728	 3655.13317782616 
1729	 3744.37908749505 
1730	 3843.77103298872 
1731	 3945.38562632572 
1732	 4060.24532592713 
1733	 4168.90099729323 
1734	 4281.30126052178 
1735	 4385.54374237232 
1736	 4486.54328785291 
1737	 4578.65013671839 
1738	 4667.16602389363 
1739	 4741.21144297213 
1740	 4805.43661947598 
1741	 4858.33389139339 
1742	 4896.56384753774 
1743	 4928.78123690576 
1744	 4950.5490792776 
1745	 4967.31116598993 
1746	 4973.83108352483 
1747	 4981.77425061034 
1748	 4982.70842433573 
1749	 4989.37951296748 
1750	 4994.10818973431 
1751	 5007.75506886112 
1752	 5024.89606031192 
1753	 5049.8675457607 
1754	 5081.97263575673 
1755	 5118.40081896437 
1756	 2934.05427383413 
1757	 3021.05761479985 
1758	 3109.27603228823 
1759	 3187.59255239281 
1760	 3268.47553254328 
1761	 3350.36341200073 
1762	 3428.77764626376 
1763	 3505.25454299238 
1764	 3582.00614451349 
1765	 3678.94466577741 
1766	 3751.18904952757 
1767	 3796.60771593729 
1768	 3857.60405117395 
1769	 3919.42576972666 
1770	 3980.83683983905 
1771	 4039.00297665055 
1772	 4121.04143872217 
1773	 4192.10352895073 
1774	 4263.28579554099 
1775	 4329.28598414353 
1776	 4392.50600263141 
1777	 4455.00865276967 
1778	 4518.69940127256 
1779	 4571.2479490107 
1780	 4628.66285048451 
1781	 4679.11654329737 
1782	 4718.18194735186 
1783	 4764.85827746571 
1784	 4801.83041178096 
1785	 4831.73116469794 
1786	 4860.72035287117 
1787	 4893.68835751154 
1788	 4923.90036510308 
1789	 4953.82263647566 
1790	 4982.82684101942 
1791	 5007.87763122664 
1792	 5024.31816560846 
1793	 5047.74949028044 
1794	 5069.47476031906 
1795	 5091.53731552297 
1796	 5107.56926155836 
1797	 5129.77901035062 
1798	 5146.2908372009 
1799	 5168.29277797018 
1800	 5198.78540062622 
1801	 5222.78669061959 
1802	 5250.06096920268 
1803	 5269.95661409563 
1804	 5278.04468959491 
1805	 5293.68959887603 
1806	 5308.05377028384 
1807	 5324.44294376534 
1808	 5348.8191268491 
1809	 5379.58104414347 
1810	 5410.66978941622 
1811	 5436.49192577834 
1812	 5463.14638586693 
1813	 5489.16025658291 
1814	 5513.91743333185 
1815	 5531.29378030044 
1816	 5560.7770536572 
1817	 5595.89297774908 
1818	 5627.51482255533 
1819	 5675.33316655711 
1820	 5726.51889274533 
1821	 5768.2116368366 
1822	 5808.77875466731 
1823	 5846.82188184717 
1824	 5873.04107097628 
1825	 5910.1326856047 
1826	 5954.58988686539 
1827	 5994.87203943472 
1828	 6039.11015364951 
1829	 6081.08507716862 
1830	 6116.73488340928 
1831	 6139.23626099239 
1832	 6180.00871342036 
1833	 6219.23863446822 
1834	 6270.90995793857 
1835	 6346.13500521006 
1836	 6406.3524350034 
1837	 6473.514635966 
1838	 6527.93334142797 
1839	 6576.0930749677 
1840	 6608.83317019094 
1841	 6647.67256846894 
1842	 6673.06195125203 
1843	 6714.94708291379 
1844	 6769.17264314801 
1845	 6813.99344515007 
1846	 6870.76418261203 
1847	 6912.42733010248 
1848	 6943.54091497322 
1849	 6965.34807283811 
1850	 6990.45364253032 
1851	 7007.3094983198 
1852	 7036.13541880408 
1853	 7070.08569394526 
1854	 7106.65799410354 
1855	 7160.14099897311 
1856	 7194.93125961952 
1857	 7227.68483751238 
1858	 7251.81310377897 
1859	 7263.71125762873 
1860	 7250.84937260787 
1861	 7237.86610944898 
1862	 7219.85093861171 
1863	 7202.52931729346 
1864	 7173.52399928946 
1865	 7163.78691718682 
1866	 7161.19865278954 
1867	 7160.43789022654 
1868	 7163.30659522631 
1869	 7184.42775294761 
1870	 7197.83797371716 
1871	 7216.68448506317 
1872	 7250.89629272542 
1873	 7281.18325223593 
1874	 7328.76625867452 
1875	 7367.26197617773 
1876	 7387.33379258373 
1877	 7396.51487363036 
1878	 7406.51064128038 
1879	 7384.29855135481 
1880	 7359.56358205401 
1881	 7339.93358454374 
1882	 7287.61823630348 
1883	 7233.08970804666 
1884	 7158.47891296216 
1885	 7066.53791886605 
1886	 6980.5564504951 
1887	 6885.12219792681 
1888	 6778.04087156078 
1889	 6672.68860860491 
1890	 6570.81491435204 
1891	 6462.98891507027 
1892	 6357.96253876439 
1893	 6259.10272211149 
1894	 6154.82307151233 
1895	 6051.73918969807 
1896	 5973.66129724042 
1897	 5902.51194895442 
1898	 5839.05978317153 
1899	 5790.88453324211 
1900	 5763.05315963678 
1901	 5723.06796430866 
1902	 5705.63713995026 
1903	 5709.62965034731 
1904	 5717.69885306853 
1905	 5747.56276762455 
1906	 5779.16804171307 
1907	 5812.79577391222 
1908	 5842.75865539588 
1909	 5870.22909751185 
1910	 5903.4888586344 
1911	 5938.45563069442 
1912	 5972.16942417389 
1913	 6009.26095921716 
1914	 6045.5768185259 
1915	 6085.76593787281 
1916	 6123.3319355289 
1917	 6174.27866735074 
1918	 6234.54134977593 
1919	 6286.00064928226 
1920	 6335.59691144157 
1921	 6391.61170191977 
1922	 6444.57795614079 
1923	 6500.47099859429 
1924	 6566.65784094852 
1925	 6626.02845357329 
1926	 6678.69135384931 
1927	 6738.96781086805 
1928	 6805.28414464692 
1929	 6857.12634271716 
1930	 6900.33685424134 
1931	 6932.3111440248 
1932	 6971.53362097891 
1933	 7004.24102287139 
1934	 7037.75865790042 
1935	 7084.32607883751 
1936	 7114.10298695067 
1937	 7135.54212667052 
1938	 7146.3365545864 
1939	 7145.00837222284 
1940	 7134.6921852515 
1941	 7137.80266243361 
1942	 7132.93968296919 
1943	 7144.3235338405 
1944	 7180.46296529579 
1945	 7191.9216824979 
1946	 7194.85460874434 
1947	 7201.02817331992 
1948	 7190.61785167672 
1949	 7197.49925318068 
1950	 7224.57866415473 
1951	 7237.67369279345 
1952	 7250.10327394343 
1953	 7261.46267669699 
1954	 7268.88409907054 
1955	 7264.5605920904 
1956	 7270.52151440951 
1957	 7282.06109634529 
1958	 7289.24484585518 
1959	 7304.5098365716 
1960	 7302.83553266267 
1961	 7289.06325972497 
1962	 7278.91187676585 
1963	 7255.26539762404 
1964	 7239.9805088754 
1965	 7231.18396973502 
1966	 7222.50575053057 
1967	 7215.23125060902 
1968	 7215.31541408008 
1969	 7199.37368304659 
1970	 7177.91785580844 
1971	 7155.66243076231 
1972	 7116.91353923384 
1973	 7093.11718391625 
1974	 7087.96295024991 
1975	 7063.0145662914 
1976	 7033.361762475 
1977	 7000.26306404697 
1978	 6953.93463099636 
1979	 6904.22696364029 
1980	 6862.90553266633 
1981	 6824.07544411493 
1982	 6788.2780202928 
1983	 6759.26339241112 
1984	 6721.44073423444 
1985	 6684.7145073316 
1986	 6644.08646103411 
1987	 6598.11708277099 
1988	 6550.48546143865 
1989	 6499.92015377748 
1990	 6449.6825005928 
1991	 6395.19009172783 
1992	 6339.34675161763 
1993	 6290.43406422367 
1994	 6249.59170520457 
1995	 6212.04071023234 
1996	 6184.78095738489 
1997	 6150.31992811511 
1998	 6116.6861841611 
1999	 6081.79162333931 
2000	 6046.37696621266 
2001	 6005.72724884398 
2002	 5961.48700577843 
2003	 5921.28645783262 
2004	 5876.69897687543 
2005	 5835.9123047952 
2006	 5803.15149310761 
2007	 5764.70607887464 
2008	 5729.35914451764 
2009	 5684.45957059059 
2010	 5639.48674116419 
2011	 5595.2607815789 
2012	 5546.05502836847 
2013	 5485.65978207923 
2014	 5438.89131079641 
2015	 5386.16801014974 
2016	 5349.22197762965 
2017	 5335.16557490145 
2018	 5307.72978332597 
2019	 5284.17573428868 
2020	 5258.27085455098 
2021	 5220.48285362343 
2022	 5177.74685710473 
2023	 5141.00795576832 
2024	 5110.15862984848 
2025	 5081.43113230932 
2026	 5057.53610691794 
2027	 5037.95790210463 
2028	 5024.75321516659 
2029	 5006.22078294387 
2030	 4990.84269639206 
2031	 4966.95613564652 
2032	 4934.9181291847 
2033	 4908.73694633969 
2034	 4880.63105067065 
2035	 4856.25210521284 
2036	 4830.88485052634 
2037	 4798.33005841456 
2038	 4757.5923102106 
2039	 4732.7861642983 
2040	 4719.13801758416 
2041	 4699.27488796433 
2042	 4678.41509298861 
2043	 4665.31341097768 
2044	 4636.72355552227 
2045	 4593.8754766013 
2046	 4561.38548067229 
2047	 4520.93882640829 
2048	 4492.70220167493 
2049	 4473.69692767444 
2050	 4456.24962014794 
2051	 4442.69525593706 
2052	 4429.05969865825 
2053	 4405.36889516182 
2054	 4372.87484917842 
2055	 4334.43849839051 
2056	 4297.08075183541 
2057	 4257.99162226881 
2058	 4224.18224069751 
2059	 4199.07789662445 
2060	 4184.52626806539 
2061	 4163.95978185418 
2062	 4158.76426507061 
2063	 4131.45315602223 
2064	 4095.70492340663 
2065	 4043.81445057506 
2066	 3985.42584632094 
2067	 3932.33746769105 
2068	 3881.6377466002 
2069	 3844.81237553426 
2070	 3818.98253658508 
2071	 3792.30626502467 
2072	 3763.12613952921 
2073	 3727.57668463408 
2074	 3681.62880614469 
2075	 3614.66549356273 
2076	 3548.73959065101 
2077	 3473.42132251813 
2078	 3401.74507607439 
2079	 3326.5975761327 
2080	 3257.25615442148 
2081	 3191.84680440678 
2082	 3118.44401478517 
2083	 3051.86799927983 
2084	 2978.01458545149 
2085	 2901.63976019857 
2086	 2833.67561367746 
2087	 2763.47247231045 
2088	 2696.84362675169 
2089	 2629.22331128126 
2090	 2556.02393834589 
2091	 2482.79172570862 
2092	 2415.1940797733 
2093	 2356.2923607564 
2094	 2300.79453871621 
2095	 2255.39284823613 
2096	 2225.27596364946 
2097	 2186.94559333163 
2098	 2149.53467433979 
2099	 2120.77463358064 
2100	 2082.52959877763 
2101	 2038.35974130418 
2102	 2004.0025376364 
2103	 1974.69258860642 
2104	 1940.257087196 
2105	 1907.33166798911 
2106	 1878.60541913692 
2107	 1841.25652337385 
2108	 1811.27134171592 
2109	 1792.55140078564 
2110	 1768.04291290533 
2111	 1740.65130715069 
2112	 1722.06950003717 
2113	 1700.26274659578 
2114	 1679.02701660624 
2115	 1659.99699268616 
2116	 1647.11642981093 
2117	 1627.47857895134 
2118	 1624.97986914674 
2119	 1634.97222244796 
2120	 1649.67575930786 
2121	 1666.89538593322 
2122	 1690.49543424546 
2123	 1715.82311338848 
2124	 1737.65506519065 
2125	 1768.06107539616 
2126	 1801.28107467058 
2127	 1828.97088414514 
2128	 1863.03367356936 
2129	 1884.23920655265 
2130	 1898.44868867094 
2131	 1922.74673620364 
2132	 1933.90063912296 
2133	 1953.45098582878 
2134	 1981.96087456822 
2135	 1999.07561067411 
2136	 2010.98519100856 
2137	 2022.69841261003 
2138	 2024.99802635238 
2139	 2031.95826759522 
2140	 2040.68292777304 
2141	 2046.66431257581 
2142	 2052.63566494282 
2143	 2052.16915729135 
2144	 2049.86634096553 
2145	 2047.53990165562 
2146	 2044.9347554163 
2147	 2046.3870474753 
2148	 2051.09994364125 
2149	 2059.60947094583 
2150	 2073.62936508222 
2151	 2087.24349486266 
2152	 2092.70531161807 
2153	 2095.89311269044 
2154	 2101.45778379149 
2155	 2108.44604652002 
2156	 2116.67057193794 
2157	 2128.89468908177 
2158	 2141.99974561901 
2159	 2155.47447661394 
2160	 2167.33759673839 
2161	 2180.26736749462 
2162	 2195.31910005585 
2163	 2211.36166722339 
2164	 2221.2631789435 
2165	 2231.1185218266 
2166	 2237.19836153364 
2167	 2234.54601600619 
2168	 2227.15723148449 
2169	 2224.06603592082 
2170	 2216.53099798561 
2171	 2213.00301183128 
2172	 2224.95799550804 
2173	 2229.16496987334 
2174	 2241.26061530193 
2175	 2257.33333363763 
2176	 2254.35283945114 
2177	 2263.75278451224 
2178	 2280.53552084952 
2179	 2290.84053833192 
2180	 2310.56529194572 
2181	 2320.48336657256 
2182	 2317.45926099393 
2183	 2318.77419787371 
2184	 2313.36610522009 
2185	 2310.79287653559 
2186	 2311.58363178223 
2187	 2315.3156392796 
2188	 2321.11192442104 
2189	 2325.68444317635 
2190	 2322.68301324886 
2191	 2317.62467837875 
2192	 2299.19557965968 
2193	 2263.83118568754 
2194	 2234.99269445175 
2195	 2203.45052335309 
2196	 2170.53510340559 
2197	 2152.29755613803 
2198	 2129.87928458734 
2199	 2103.45648021713 
2200	 2085.24823781481 
2201	 2065.71288678164 
2202	 2049.2027413172 
2203	 2036.3515435386 
2204	 2022.31680748489 
2205	 2004.33423378835 
2206	 1991.10030444231 
2207	 1978.06946750563 
2208	 1950.58118724226 
2209	 1930.31681811735 
2210	 1905.06022793344 
2211	 1871.27676247066 
2212	 1841.98316595073 
2213	 1814.70327079672 
2214	 1777.5114521485 
2215	 1736.09890087359 
2216	 1696.96353446296 
2217	 1657.17784490368 
2218	 1618.572973592 
2219	 1583.56682652904 
2220	 1539.24807952022 
2221	 1494.20266276939 
2222	 1433.96405096143 
2223	 1369.80519991136 
2224	 1313.15622262765 
2225	 1252.46889901174 
2226	 1193.21378124149 
2227	 1138.12417946532 
2228	 1069.30299111138 
2229	 990.774098945735 
2230	 919.064712214303 
2231	 838.918518081272 
2232	 764.688743620592 
2233	 701.369529621223 
2234	 633.882513493081 
2235	 569.933270246908 
2236	 498.640503740887 
2237	 426.242765246223 
2238	 365.883108364489 
2239	 309.459515797074 
2240	 262.583772042333 
2241	 236.749606125819 
2242	 211.44272761959 
2243	 183.229550664361 
2244	 161.398917054439 
2245	 140.129403158904 
2246	 113.696151360453 
2247	 93.1221132780089 
2248	 73.7138723862701 
2249	 65.7220287077112 
2250	 62.6654214901468 
2251	 61.3745265535467 
2252	 75.3690049734502 
2253	 84.2478264539932 
2254	 89.0592861886673 
2255	 96.9833612684658 
2256	 107.074386054192 
2257	 113.794885758062 
2258	 135.116206892738 
2259	 164.508093834224 
2260	 182.599482952127 
2261	 210.33589227546 
2262	 227.114014856737 
2263	 226.718905283268 
2264	 236.091718788837 
2265	 235.827915884117 
2266	 230.257133778452 
2267	 224.584956218038 
2268	 217.323438990271 
2269	 208.998381184575 
2270	 192.382497469156 
2271	 175.57994088135 
2272	 161.592990631745 
2273	 149.098844657328 
2274	 134.92569757076 
2275	 121.041458750521 
2276	 102.780172118358 
2277	 85.1609785509774 
2278	 74.7277947632651 
2279	 61.2909140682757 
2280	 54.2483808037167 
2281	 47.102540687862 
2282	 37.3053906289651 
2283	 30.5789215279311 
2284	 17.766430008066 
2285	 4.12373800531082 
2286	-3.83146949214446 
2287	-11.4861567926688 
2288	-10.7758102177291 
2289	 5.13813570196326E-02 
2290	 6.16514181756192 
2291	 16.8153399323999 
2292	 21.7624367240827 
2293	 19.0462065277146 
2294	 24.8701502574486 
2295	 32.6215681889875 
2296	 41.2897215126141 
2297	 59.8827735422124 
2298	 66.5179039523416 
2299	 65.7583499705886 
2300	 66.8091758326576 
2301	 64.1549052783536 
2302	 63.4703806644353 
2303	 61.6452589226431 
2304	 64.3841976001185 
2305	 71.3194170733013 
2306	 70.5033802729955 
2307	 69.7339580004417 
2308	 69.6640984391552 
2309	 65.5707451164051 
2310	 58.4343153353952 
2311	 64.1374036746758 
2312	 63.6578884192318 
2313	 49.2684548215655 
2314	 45.6986481609667 
2315	 43.1237168702942 
2316	 41.6001908503473 
2317	 51.889293022091 
2318	 64.4872917160129 
2319	 74.7157669949104 
2320	 77.2216103520229 
2321	 83.9689181844701 
2322	 89.8814814159255 
2323	 81.0934034322771 
2324	 80.067116769121 
2325	 78.9294753210745 
2326	 73.8138894130441 
2327	 89.3326619524546 
2328	 102.439702672515 
2329	 105.848402713068 
2330	 107.872359882348 
2331	 107.729254286975 
2332	 105.278557279486 
2333	 108.112449221526 
2334	 123.318716614764 
2335	 121.006119110005 
2336	 117.25261915795 
2337	 117.16829520154 
2338	 106.682768609045 
2339	 105.73094238271 
2340	 100.174876631584 
2341	 99.6092701097226 
2342	 99.6482838789465 
2343	 94.774967072596 
2344	 102.251661877109 
2345	 94.547389662851 
2346	 88.2496629676908 
2347	 83.9004656359654 
2348	 64.3636889303092 
2349	 56.2451287879133 
2350	 54.7492850918276 
2351	 52.3130096216985 
2352	 54.7743158987392 
2353	 63.724598846084 
2354	 76.0841569844839 
2355	 87.1659032118755 
2356	 101.94102957224 
2357	 110.341001999788 
2358	 112.629376041615 
2359	 118.48861757468 
2360	 122.169224559546 
2361	 127.538732109769 
2362	 125.196358303595 
2363	 117.462233357623 
2364	 110.628710515723 
2365	 98.1468204648233 
2366	 90.3015630174783 
2367	 91.6011582311317 
2368	 98.3776440151753 
2369	 107.42127662105 
2370	 114.470996123592 
2371	 110.043393495966 
2372	 106.151771844369 
2373	 108.097296762651 
2374	 109.858047158043 
2375	 109.6663259137 
2376	 104.217602634532 
2377	 105.185686977654 
2378	 105.743704317363 
2379	 119.407247106489 
2380	 138.778486378514 
2381	 141.079927723071 
2382	 137.810136611944 
2383	 121.818899382543 
2384	 103.809173065205 
2385	 92.4142248257205 
2386	 84.4990278608314 
2387	 84.162759301973 
2388	 83.9320903176363 
2389	 85.5041689803131 
2390	 95.1315104955978 
2391	 101.680860337785 
2392	 98.2003998972971 
2393	 95.6096028632271 
2394	 86.0874096209994 
2395	 69.5069828625805 
2396	 62.2963330155704 
2397	 58.7698698737514 
2398	 56.8604348939331 
2399	 61.5335475813072 
2400	 69.5709695346891 
2401	 77.0461748652311 
2402	 79.2815124799946 
2403	 73.6041847756349 
2404	 73.0056511588405 
2405	 73.0741703959453 
2406	 69.5680463105322 
2407	 72.0540186669863 
2408	 73.7715027499946 
2409	 68.0448128382019 
2410	 60.5825747274443 
2411	 63.6791587875435 
2412	 64.5115152259516 
2413	 59.9387513419221 
2414	 52.8590663390379 
2415	 37.3717713473766 
2416	 23.3789905972053 
2417	 9.35866831133091 
2418	 2.13906080564207 
2419	 4.96098836400536 
2420	 1.11939659130308 
2421	 5.31626163807088 
2422	 17.2679806185362 
2423	 19.5196996202343 
2424	 30.3916803705176 
2425	 36.0201711997913 
2426	 30.9156817308203 
2427	 27.5573244116954 
2428	 17.2702342728445 
2429	 20.2589463273256 
2430	 27.0841184102825 
2431	 32.1506027718181 
2432	 39.5933429552945 
2433	 38.1933215413051 
2434	 36.8551637065023 
2435	 32.8758203946078 
2436	 36.4721607854171 
2437	 40.0759782890347 
2438	 35.1715481972875 
2439	 35.4446286942947 
2440	 26.4844996323976 
2441	 9.77436771785549 
2442	 5.18250168487569 
2443	 5.4083688934174 
2444	 5.47644358016216 
2445	 12.1160406822972 
2446	 17.600655634761 
2447	 18.8294848666185 
2448	 23.963157959637 
2449	 25.7491744213023 
2450	 22.6058734041769 
2451	 22.093806467953 
2452	 14.4473474165482 
2453	 10.850634412959 
2454	 15.1755473801331 
2455	 20.1973775993404 
2456	 28.9264574145163 
2457	 31.5090798181395 
2458	 29.2614806174068 
2459	 17.6288931586708 
2460	 13.936432387982 
2461	 17.3190799060762 
2462	 18.4784919693085 
2463	 35.3558795391676 
2464	 47.5492843502216 
2465	 59.2114461006647 
2466	 61.7640201080871 
2467	 55.4608293727621 
2468	 42.1823354726754 
2469	 26.313852882676 
2470	 21.4245773388211 
2471	 14.9156622534557 
2472	 15.8320435612502 
2473	 30.6770790877596 
2474	 31.0040592975941 
2475	 27.5209555796159 
2476	 23.3244745283875 
2477	 21.7550859475577 
2478	 30.8523445757322 
2479	 42.5932935161853 
2480	 57.0878133961189 
2481	 58.4351933360586 
2482	 53.1357498654102 
2483	 50.6753556185069 
2484	 47.707469176335 
2485	 40.2529956592905 
2486	 37.4549691131657 
2487	 32.6152852582689 
2488	 26.4005190609156 
2489	 34.939152222834 
2490	 41.7555285472063 
2491	 39.3418546608075 
2492	 36.0093172296431 
2493	 32.8116042548229 
2494	 24.8546575187791 
2495	 41.0828304448154 
2496	 61.2610745709582 
2497	 68.0082224225965 
2498	 85.1706693047907 
2499	 84.8674120912554 
2500	 70.6840232008456 
