Wavelength	2mm_BluePLA00000.asd
350	 2.01426826034086 
351	 3.1102600627429 
352	 2.28908941004512 
353	 0.17471988059823 
354	 0.012064338179224 
355	 0.319085059379775 
356	-0.111326871142526 
357	 1.1321117137262 
358	 1.5565387206325 
359	 1.19849582829773 
360	 2.15163505351609 
361	 2.63077085399984 
362	 2.00201582545194 
363	 0.447137948461862 
364	 0.275358113440325 
365	 8.70042982689925E-02 
366	-0.318405639063066 
367	 0.495381230700884 
368	 2.1201235597081 
369	 2.95247850103017 
370	 1.63559323294192 
371	 1.3981115962811 
372	 1.61634167659634 
373	 1.42479054200338 
374	-0.194338311149862 
375	-0.20001204954773 
376	 0.799222462544655 
377	 0.56696323948327 
378	 1.73209462679984 
379	 1.91422420301408 
380	 0.018239537106283 
381	 0.875988991175826 
382	 1.56580406873148 
383	 1.45946895704243 
384	 1.82422977600829 
385	 2.05547901913968 
386	 1.88671459300965 
387	 1.42466145767479 
388	 2.24446272411887 
389	 2.72980689060732 
390	 2.29234322338468 
391	 2.01525360895328 
392	 2.34498086063901 
393	 2.89522302590222 
394	 2.94188820607104 
395	 2.8586784557987 
396	 2.91361856477328 
397	 3.07496619756252 
398	 2.35352130717783 
399	 3.07099587851155 
400	 4.63247988278355 
401	 4.26957699529903 
402	 5.67472934062244 
403	 7.08157453143697 
404	 6.46165803340983 
405	 6.73645656787969 
406	 7.29443590736836 
407	 7.89985869772442 
408	 9.20657637629276 
409	 9.52133292490173 
410	 10.0027309740729 
411	 12.5619362668791 
412	 12.8156473944925 
413	 14.1886196586341 
414	 18.6086646329628 
415	 21.2585767596351 
416	 21.7498601600674 
417	 21.8000808525862 
418	 25.1575877396576 
419	 27.6748703787829 
420	 30.2432026476882 
421	 34.4299995805017 
422	 37.5553203176706 
423	 40.9736939185178 
424	 45.1501634657662 
425	 48.2402407207911 
426	 52.3581838058126 
427	 57.218735618999 
428	 61.3521886321044 
429	 65.9242225436598 
430	 70.7586727818781 
431	 75.2554189609801 
432	 78.0202531890761 
433	 81.0635286131194 
434	 85.1758442576816 
435	 89.6687259412347 
436	 93.1864289702952 
437	 95.42466307562 
438	 96.7959159570257 
439	 99.4439236530496 
440	 101.8294431134 
441	 102.790562520367 
442	 103.332580393524 
443	 104.173548455246 
444	 105.513514571102 
445	 107.066926163966 
446	 107.860406546354 
447	 107.746657041642 
448	 106.985491319875 
449	 106.080409491718 
450	 106.714969790207 
451	 108.646715516319 
452	 107.228349233364 
453	 105.873663665998 
454	 105.028988874692 
455	 103.410863842308 
456	 103.727458036934 
457	 104.091753110393 
458	 102.515523013992 
459	 102.205763307839 
460	 101.614045588359 
461	 100.052720754201 
462	 98.6338795436557 
463	 97.7934047958388 
464	 97.2515084274158 
465	 96.2715131955281 
466	 95.2540943279378 
467	 93.7760203178993 
468	 91.5623668004119 
469	 89.3193713059177 
470	 88.0530744478542 
471	 87.6620506222975 
472	 86.2896582644624 
473	 85.708126401083 
474	 84.7394702963568 
475	 81.265128563515 
476	 80.2011056304153 
477	 80.4067432633318 
478	 80.1270599844344 
479	 79.5634438063126 
480	 79.1656708129562 
481	 78.3334138480823 
482	 74.6086172385018 
483	 73.8758524455772 
484	 74.9556091832344 
485	 73.8124414187702 
486	 72.845708875725 
487	 71.6399610675185 
488	 69.6116456597692 
489	 66.77353912363 
490	 64.4840471742873 
491	 63.3845886968312 
492	 63.3805079694282 
493	 62.300324369034 
494	 60.6973625382253 
495	 60.1422087508405 
496	 58.8558750837116 
497	 57.6863006730806 
498	 56.8269133700897 
499	 52.5053619118296 
500	 49.8329562324403 
501	 50.0174302186483 
502	 49.3982321076392 
503	 47.9995072698583 
504	 45.741175946003 
505	 42.9101228455978 
506	 41.8173390750998 
507	 41.6237907131084 
508	 41.2177769999664 
509	 40.5934541242584 
510	 39.177510096181 
511	 37.3213191242048 
512	 36.6606661759714 
513	 36.4401165419434 
514	 35.9097592243883 
515	 34.3983148096884 
516	 33.4702870740302 
517	 33.4926979515986 
518	 33.9772888593097 
519	 32.2216703401075 
520	 29.7504974465038 
521	 28.3030423346114 
522	 30.4098321381983 
523	 30.5083687838933 
524	 28.8914515603132 
525	 28.4248397504592 
526	 26.4896639147415 
527	 24.4438005508589 
528	 23.6657384351882 
529	 22.8116961954127 
530	 22.0245815807565 
531	 21.4579066817488 
532	 21.3429510285742 
533	 20.6526251239755 
534	 18.8695876084521 
535	 15.9418302470719 
536	 15.5559706204719 
537	 15.541477753245 
538	 13.5786791527174 
539	 12.6652563124212 
540	 12.4044384032019 
541	 12.1637777978187 
542	 11.0126607421763 
543	 9.97928969176361 
544	 9.73837028177712 
545	 10.6953409104315 
546	 8.58621571600059 
547	 6.51683288374244 
548	 7.94220481644908 
549	 7.85401939881395 
550	 7.25549067597542 
551	 6.95856417977659 
552	 6.46617812682927 
553	 6.62724286282085 
554	 7.07214883275626 
555	 6.50121236639322 
556	 6.18763307071262 
557	 6.01803204412303 
558	 5.67466135578071 
559	 6.09626953069611 
560	 6.89656246796823 
561	 7.46791512148695 
562	 6.80516306154508 
563	 6.56944041568093 
564	 6.34942878603935 
565	 3.68820648052972 
566	 3.32726442945833 
567	 4.88599656735122 
568	 6.11214723808586 
569	 5.51986755373338 
570	 4.1528830206166 
571	 3.4048266722506 
572	 5.02645405505241 
573	 4.83813097762922 
574	 2.33295514197824 
575	 1.33269049167932 
576	 0.554032787146544 
577	 0.849848995441634 
578	 3.28282104265981 
579	 2.07125015489131 
580	 0.499425348792101 
581	 1.66040688564189 
582	 2.25141229389208 
583	 2.01164093476945 
584	 1.2903831043156 
585	 1.31845758819243 
586	 1.47312969256642 
587	 1.4872347044103 
588	 1.23340472713572 
589	 1.32877781745424 
590	 1.62359123673433 
591	 1.8227450512566 
592	 1.79909527650485 
593	 1.77186115972659 
594	 1.94089040117216 
595	 2.63895527212155 
596	 2.36607080734554 
597	 0.907275383815335 
598	-1.01171397511463 
599	 0.161143424920093 
600	 1.6058082087104 
601	-6.71900857064824E-02 
602	 0.390007397602395 
603	 0.947099550927154 
604	 0.366025391634144 
605	 0.69030385340523 
606	 1.79794056311695 
607	 2.70507392052139 
608	 1.4001709966836 
609	 1.8953743680114 
610	 2.69980700410005 
611	 1.19329607876052 
612	 2.70686450037713 
613	 3.96285946846811 
614	 2.56140776374712 
615	 1.73069458183007 
616	 2.0935193716667 
617	 3.18069138830629 
618	 3.04738092989586 
619	 3.41761439236531 
620	 4.0609420869785 
621	 4.07945269641232 
622	 4.84108126086986 
623	 5.46076381713052 
624	 4.91364361914092 
625	 2.74934251635567 
626	 2.19021521680477 
627	 3.80451032685881 
628	 3.82997982413126 
629	 3.41545981248153 
630	 3.13826789221496 
631	 3.47963737357855 
632	 3.79729710943612 
633	 3.52170771331213 
634	 2.44809201432483 
635	 1.87166601756641 
636	 2.25798874579951 
637	 3.21236240158037 
638	 2.62981197011007 
639	 1.76134830527857 
640	 1.77015684959991 
641	 3.92580401435064 
642	 5.08562874588875 
643	 4.670749764938 
644	 3.32610413276835 
645	 4.35822614151265 
646	 4.62185388789981 
647	 2.78811100322494 
648	 3.88276020621044 
649	 4.09802113210652 
650	 2.90097729484348 
651	 2.7405238802097 
652	 4.99864472624116 
653	 7.06706960871097 
654	 5.62320875037277 
655	 7.07022132981233 
656	 8.41038088938536 
657	 7.55609306694264 
658	 9.39989420352227 
659	 11.3093926557323 
660	 12.6043000931504 
661	 15.1011755339099 
662	 17.3712629299532 
663	 20.6657756439418 
664	 27.0807535139037 
665	 32.804787388754 
666	 40.0307734563573 
667	 50.8419424065847 
668	 62.5426423949116 
669	 76.5349763699042 
670	 93.6370025604602 
671	 113.663936325617 
672	 136.442893593247 
673	 162.141697603646 
674	 191.199410234229 
675	 224.948883077664 
676	 263.035702634747 
677	 305.199105254868 
678	 353.837809923042 
679	 406.82794796724 
680	 463.755584135685 
681	 528.001891605862 
682	 598.423233468644 
683	 673.664801089489 
684	 751.987265746538 
685	 835.305499496869 
686	 924.866765421436 
687	 1020.77213895389 
688	 1117.71031632227 
689	 1218.10891158187 
690	 1322.74644146042 
691	 1426.97220591689 
692	 1533.93877773887 
693	 1643.18002454495 
694	 1751.33305295303 
695	 1857.73106051117 
696	 1963.34775403666 
697	 2069.12778646299 
698	 2170.62730629838 
699	 2270.16851756017 
700	 2368.47785526144 
701	 2459.89819839667 
702	 2548.48907497245 
703	 2635.63082485378 
704	 2720.32708248457 
705	 2802.24220709375 
706	 2878.95139355078 
707	 2948.46913061631 
708	 3019.30220631326 
709	 3086.48245503957 
710	 3146.74834519317 
711	 3207.01411427384 
712	 3264.88676487688 
713	 3318.88064839088 
714	 3368.21711757474 
715	 3415.7154430464 
716	 3461.59028902259 
717	 3505.12000597614 
718	 3547.3489392103 
719	 3587.70982551329 
720	 3625.49255619027 
721	 3660.28596852818 
722	 3692.34885597236 
723	 3722.36264527299 
724	 3751.56652681167 
725	 3779.98899245269 
726	 3808.15764409667 
727	 3836.38470518548 
728	 3861.04699502694 
729	 3883.75596485111 
730	 3906.49378811121 
731	 3929.28787804916 
732	 3952.45669091204 
733	 3975.73080484724 
734	 3998.10082348416 
735	 4019.01279682977 
736	 4038.74971829327 
737	 4058.02375414916 
738	 4076.97483108155 
739	 4093.82917791055 
740	 4108.01290605032 
741	 4124.34128480638 
742	 4139.0641475173 
743	 4150.96965737071 
744	 4162.16353128681 
745	 4173.87196683186 
746	 4185.19138382438 
747	 4194.35753467063 
748	 4203.54610920068 
749	 4212.19159044359 
750	 4219.62465349194 
751	 4226.49081665711 
752	 4231.62355525984 
753	 4235.37310081911 
754	 4240.20708205267 
755	 4243.81764805895 
756	 4246.34403947131 
757	 4248.59173822305 
758	 4247.94153255003 
759	 4243.85872432189 
760	 4238.11012204993 
761	 4238.6040248948 
762	 4240.4577341875 
763	 4241.55545571504 
764	 4243.03804086558 
765	 4243.25471063116 
766	 4241.90040202885 
767	 4239.28240410711 
768	 4235.80588487713 
769	 4232.64542820563 
770	 4229.92381021817 
771	 4224.51941791329 
772	 4218.36614866713 
773	 4212.15100343934 
774	 4205.36310688046 
775	 4197.82238547499 
776	 4190.82323342706 
777	 4185.48566789798 
778	 4177.64153307224 
779	 4168.29361796611 
780	 4158.73242919838 
781	 4149.63768854716 
782	 4139.30480044194 
783	 4127.96225899649 
784	 4117.44922190373 
785	 4105.86517105341 
786	 4093.36125964916 
787	 4080.76061490326 
788	 4069.52779469868 
789	 4056.32861832765 
790	 4040.9071159469 
791	 4030.65081661234 
792	 4017.33740214448 
793	 4000.62785661783 
794	 3984.96707549186 
795	 3970.05710588278 
796	 3954.54632957659 
797	 3937.72011147507 
798	 3923.32479277077 
799	 3908.7846058073 
800	 3892.83122903728 
801	 3876.38361954281 
802	 3860.70296259993 
803	 3845.4014721444 
804	 3829.40786540466 
805	 3814.69525334633 
806	 3799.18949385227 
807	 3781.54374867237 
808	 3764.74215566286 
809	 3747.31333234447 
810	 3729.23077842665 
811	 3712.05404057429 
812	 3694.71978018748 
813	 3677.15888051201 
814	 3659.50877364479 
815	 3641.14411292809 
816	 3622.77029944694 
817	 3604.72751473751 
818	 3586.25930845559 
819	 3567.80694786908 
820	 3549.49309589389 
821	 3531.17018312195 
822	 3510.4570239046 
823	 3490.12991389451 
824	 3472.44600394503 
825	 3451.84817566137 
826	 3433.02732095622 
827	 3416.82089563071 
828	 3398.10200233572 
829	 3378.28505439585 
830	 3357.92618141023 
831	 3337.15221335866 
832	 3313.20383734064 
833	 3288.35940625739 
834	 3264.80610714636 
835	 3242.64539916284 
836	 3222.3064751611 
837	 3204.33950465608 
838	 3189.36392023381 
839	 3176.93532412893 
840	 3164.93532968643 
841	 3151.15120396565 
842	 3135.14799295852 
843	 3117.48383885894 
844	 3099.10836390102 
845	 3081.51615014238 
846	 3064.47399518098 
847	 3046.88274867063 
848	 3027.32006480021 
849	 3005.89237902024 
850	 2985.8506832066 
851	 2968.43499868621 
852	 2948.84491360671 
853	 2929.88646673926 
854	 2911.58339498278 
855	 2892.04932265254 
856	 2872.49855614893 
857	 2853.14283080634 
858	 2833.94668319956 
859	 2814.76112664964 
860	 2795.6511049247 
861	 2776.50995565179 
862	 2757.01882684646 
863	 2736.68132415357 
864	 2716.52668850189 
865	 2697.76360676878 
866	 2678.80344910893 
867	 2658.96382515318 
868	 2638.56698082487 
869	 2619.88364504069 
870	 2600.76268205746 
871	 2581.47825516034 
872	 2563.32566404201 
873	 2544.3227015245 
874	 2525.41116069755 
875	 2506.91495539203 
876	 2485.80214981171 
877	 2465.64472364507 
878	 2446.20498806917 
879	 2424.2859851005 
880	 2403.74473568012 
881	 2382.80397176334 
882	 2359.72589070622 
883	 2338.30501513699 
884	 2316.76338126581 
885	 2294.01825012563 
886	 2269.90420751407 
887	 2245.92784792679 
888	 2222.40533169605 
889	 2198.93479395296 
890	 2173.28556815472 
891	 2149.10259575945 
892	 2127.88437586281 
893	 2107.36273193315 
894	 2087.10940577535 
895	 2067.48557413727 
896	 2049.25637729446 
897	 2032.82884113238 
898	 2016.3011047819 
899	 1999.70415497159 
900	 1987.64583216016 
901	 1976.11439631102 
902	 1965.03712668615 
903	 1956.02555347839 
904	 1948.50069909749 
905	 1942.11215915907 
906	 1935.51461522435 
907	 1924.83530349431 
908	 1912.37807117921 
909	 1899.72626425311 
910	 1887.89250641603 
911	 1873.88737094398 
912	 1858.99657054438 
913	 1844.845735897 
914	 1832.30476385138 
915	 1818.67524792732 
916	 1803.35549086135 
917	 1787.32389307802 
918	 1772.43255564203 
919	 1758.23390547965 
920	 1743.86024414299 
921	 1728.7788272507 
922	 1712.63234376584 
923	 1696.29297938231 
924	 1681.42467418569 
925	 1666.03255338402 
926	 1650.37920461321 
927	 1634.79650231016 
928	 1618.30073087731 
929	 1602.87490228032 
930	 1588.04295827205 
931	 1571.53061480015 
932	 1553.98893616803 
933	 1536.64536424868 
934	 1520.27470096204 
935	 1503.89110630017 
936	 1487.92353609814 
937	 1473.10388963391 
938	 1460.08166540746 
939	 1444.19438793813 
940	 1428.07204870397 
941	 1413.9495026524 
942	 1399.27002328517 
943	 1383.29302479906 
944	 1367.33779019908 
945	 1353.77237472086 
946	 1338.75556738084 
947	 1323.33018293107 
948	 1308.61073931619 
949	 1293.84470741574 
950	 1279.75449704898 
951	 1265.93760780624 
952	 1251.42722145615 
953	 1236.17423881764 
954	 1221.91923612844 
955	 1208.81590804358 
956	 1192.89208146946 
957	 1179.12606879101 
958	 1166.47004965016 
959	 1151.62924228775 
960	 1135.50463767779 
961	 1120.36799291007 
962	 1106.42258430154 
963	 1090.20781177573 
964	 1075.32115793592 
965	 1062.21735434695 
966	 1846.39702645702 
967	 1867.41235117824 
968	 1886.61868403625 
969	 1911.36706550761 
970	 1936.31397438594 
971	 1963.33794779707 
972	 1998.08056869293 
973	 2028.99786913873 
974	 2056.46243852202 
975	 2087.44464378636 
976	 2120.01574163743 
977	 2153.84438394005 
978	 2188.49685293892 
979	 2219.81865840366 
980	 2249.95518978078 
981	 2278.23710431144 
982	 2301.60444122629 
983	 2325.91492100786 
984	 2348.46416463349 
985	 2369.59971364204 
986	 2391.39937667282 
987	 2413.09813931752 
988	 2433.79668044886 
989	 2455.15810252463 
990	 2474.37728636955 
991	 2491.8177878057 
992	 2509.41227704307 
993	 2525.87322235491 
994	 2542.85877610084 
995	 2559.30828165001 
996	 2573.92671939929 
997	 2588.62052453499 
998	 2602.54461424772 
999	 2619.28920441509 
1000	 2639.66516010411 
1001	 2660.09860394423 
1002	 2679.20030151489 
1003	 2695.47581163993 
1004	 2712.59846956174 
1005	 2730.10700939294 
1006	 2747.5070789048 
1007	 2765.40992732666 
1008	 2783.32979050967 
1009	 2803.40588391218 
1010	 2823.92974648703 
1011	 2847.59054038226 
1012	 2872.64018370985 
1013	 2888.97653801955 
1014	 2902.54566345666 
1015	 2919.34104808115 
1016	 2933.67755669693 
1017	 2951.79568210928 
1018	 2974.02450114577 
1019	 2994.10073408807 
1020	 3012.57221959697 
1021	 3032.1067590545 
1022	 3053.60484453909 
1023	 3072.71711141437 
1024	 3090.36039648238 
1025	 3108.66897678126 
1026	 3127.10894012684 
1027	 3144.19633311545 
1028	 3161.64560587713 
1029	 3176.29895109471 
1030	 3193.23189843167 
1031	 3211.13533130915 
1032	 3229.03843015076 
1033	 3249.84578023775 
1034	 3267.4271852138 
1035	 3284.05802426089 
1036	 3302.20127601672 
1037	 3319.02524398822 
1038	 3338.07822876411 
1039	 3356.34778964842 
1040	 3373.88339679468 
1041	 3389.7137026785 
1042	 3408.56980754396 
1043	 3428.79261219026 
1044	 3447.83471520561 
1045	 3468.18814720944 
1046	 3486.58575754522 
1047	 3501.30660443252 
1048	 3514.72045318797 
1049	 3528.8889378631 
1050	 3544.27666439791 
1051	 3561.39518558302 
1052	 3578.84537172661 
1053	 3594.66511955336 
1054	 3609.42991368247 
1055	 3622.80608721277 
1056	 3637.64551123059 
1057	 3652.77997513839 
1058	 3667.70856984992 
1059	 3683.79099617175 
1060	 3700.33557014516 
1061	 3717.81920394711 
1062	 3737.14538903604 
1063	 3756.52753436173 
1064	 3772.95174816051 
1065	 3786.96233590362 
1066	 3800.62886751816 
1067	 3813.62181177057 
1068	 3822.78707982217 
1069	 3836.61023400612 
1070	 3851.18766268928 
1071	 3864.99312210246 
1072	 3887.5400724617 
1073	 3909.93729322166 
1074	 3928.2000378636 
1075	 3943.77940960486 
1076	 3961.67876618705 
1077	 3976.97969552552 
1078	 3994.70868473384 
1079	 4014.97232071368 
1080	 4035.87765929786 
1081	 4058.75021772891 
1082	 4078.46706072077 
1083	 4097.57597933433 
1084	 4116.89445844318 
1085	 4135.51329210735 
1086	 4156.86023933263 
1087	 4182.28937043296 
1088	 4207.83457485716 
1089	 4233.56240710894 
1090	 4258.94770265217 
1091	 4282.79441012798 
1092	 4305.50389964586 
1093	 4330.83191523216 
1094	 4352.66303070667 
1095	 4381.58621071407 
1096	 4417.12970300689 
1097	 4450.47035652674 
1098	 4487.45322781595 
1099	 4521.88851768066 
1100	 4551.57801478973 
1101	 4586.84971546288 
1102	 4626.9690203719 
1103	 4663.87515478685 
1104	 4700.88982074041 
1105	 4740.77961079874 
1106	 4776.08250932397 
1107	 4811.85103729991 
1108	 4852.155620997 
1109	 4893.83136589099 
1110	 4937.34135474115 
1111	 4983.48374546729 
1112	 5028.31754784229 
1113	 5075.41475187606 
1114	 5120.1516612559 
1115	 5164.48548595048 
1116	 5206.88133963949 
1117	 5246.85092886752 
1118	 5288.16581147271 
1119	 5330.47075182949 
1120	 5369.42357053976 
1121	 5409.91480985862 
1122	 5445.24721552651 
1123	 5476.44060357278 
1124	 5504.59272601742 
1125	 5528.92860984816 
1126	 5551.1707112763 
1127	 5571.79083217622 
1128	 5588.32389702692 
1129	 5607.38470869047 
1130	 5625.47974864357 
1131	 5645.04616333302 
1132	 5663.2202901181 
1133	 5686.96365504869 
1134	 5712.4021736484 
1135	 5741.3011070765 
1136	 5775.9166545071 
1137	 5809.28695536823 
1138	 5844.06898069847 
1139	 5879.6655826506 
1140	 5917.75236901307 
1141	 5953.71773274352 
1142	 5995.18522869248 
1143	 6026.67093263229 
1144	 6055.44068532646 
1145	 6076.77940886541 
1146	 6092.86221989812 
1147	 6099.46282913989 
1148	 6098.30275036961 
1149	 6090.83586320951 
1150	 6074.18424245148 
1151	 6047.13935379508 
1152	 6015.5139973873 
1153	 5974.94258651452 
1154	 5933.55103115454 
1155	 5883.66137466488 
1156	 5837.77476255555 
1157	 5790.8178947754 
1158	 5743.98780422112 
1159	 5696.69808370756 
1160	 5650.14051058073 
1161	 5601.17585146849 
1162	 5556.77067766596 
1163	 5512.37470394951 
1164	 5473.63576078917 
1165	 5441.21145445524 
1166	 5408.40083293318 
1167	 5376.04670177283 
1168	 5349.84947136354 
1169	 5322.03897001345 
1170	 5300.16161564875 
1171	 5288.92586864586 
1172	 5282.92919199296 
1173	 5290.66037805077 
1174	 5306.82923992467 
1175	 5337.61720872782 
1176	 5377.54723051836 
1177	 5436.92598528045 
1178	 5512.27555394778 
1179	 5600.31953215735 
1180	 5707.13433731159 
1181	 5820.7973439305 
1182	 5951.5501145695 
1183	 6080.45025687113 
1184	 6225.02358364483 
1185	 6358.34661398233 
1186	 6493.06228792219 
1187	 6618.85163491283 
1188	 6741.59714379543 
1189	 6852.9350049321 
1190	 6956.75307136759 
1191	 7051.81637631235 
1192	 7130.31496541303 
1193	 7203.18993337758 
1194	 7268.42211922848 
1195	 7322.42053553218 
1196	 7372.2097439527 
1197	 7414.63170994972 
1198	 7454.77202157427 
1199	 7485.56468011826 
1200	 7521.33559240664 
1201	 7555.85491763793 
1202	 7591.6772374294 
1203	 7629.09933095119 
1204	 7664.11552979835 
1205	 7698.23462755213 
1206	 7732.62846475414 
1207	 7763.51375771905 
1208	 7799.37825596913 
1209	 7840.10019377237 
1210	 7877.32016693433 
1211	 7917.38915279108 
1212	 7952.04101418825 
1213	 7983.32304715251 
1214	 8017.19676881873 
1215	 8048.60656811112 
1216	 8081.92369062398 
1217	 8119.54196301722 
1218	 8154.52270022718 
1219	 8190.36844826145 
1220	 8226.28169592227 
1221	 8259.98678401279 
1222	 8290.48696436485 
1223	 8322.33929431973 
1224	 8353.91629016318 
1225	 8386.34618619087 
1226	 8419.87044187421 
1227	 8450.98016044207 
1228	 8483.09806098842 
1229	 8510.39470313282 
1230	 8534.69445145001 
1231	 8557.11749968063 
1232	 8574.3363126015 
1233	 8595.11021941475 
1234	 8615.53893312948 
1235	 8636.02508848738 
1236	 8658.56469393629 
1237	 8679.45714171283 
1238	 8699.00914500851 
1239	 8718.12369141549 
1240	 8734.32862272039 
1241	 8751.52584713038 
1242	 8769.81635694781 
1243	 8786.42039372898 
1244	 8804.87482430332 
1245	 8823.76545505749 
1246	 8841.59603421857 
1247	 8860.3284893215 
1248	 8875.95790323457 
1249	 8889.30956257512 
1250	 8905.00334486122 
1251	 8919.53692476239 
1252	 8935.9206026602 
1253	 8955.6299534673 
1254	 8973.68569675306 
1255	 8991.32933547779 
1256	 9009.04494590916 
1257	 9027.12663399999 
1258	 9043.95240159389 
1259	 9058.81903063343 
1260	 9075.52829808028 
1261	 9093.17212413413 
1262	 9109.527517965 
1263	 9126.14296446735 
1264	 9142.79761038626 
1265	 9154.37618522722 
1266	 9163.39449422906 
1267	 9169.6199326718 
1268	 9176.47740736827 
1269	 9185.28113235912 
1270	 9194.23463957074 
1271	 9204.46690365908 
1272	 9210.63836585169 
1273	 9210.61699098818 
1274	 9206.84323950919 
1275	 9200.60326099971 
1276	 9193.94401958429 
1277	 9187.17866464398 
1278	 9181.24920179838 
1279	 9172.35351345905 
1280	 9161.9768802901 
1281	 9150.31390168385 
1282	 9135.68754119947 
1283	 9120.5672223695 
1284	 9104.92067118569 
1285	 9088.14538223671 
1286	 9070.10568150311 
1287	 9052.36640861025 
1288	 9033.92360045419 
1289	 9014.73046776539 
1290	 8997.61257856503 
1291	 8979.32655008288 
1292	 8963.12404658713 
1293	 8951.09237886028 
1294	 8939.97698605101 
1295	 8930.30631498156 
1296	 8921.48757282122 
1297	 8914.06394180736 
1298	 8907.08411382681 
1299	 8902.4693288307 
1300	 8901.52605431338 
1301	 8898.04160079036 
1302	 8895.75735628855 
1303	 8896.35652224187 
1304	 8894.81503272749 
1305	 8895.34809672535 
1306	 8900.80646859953 
1307	 8903.9199914772 
1308	 8908.30949258107 
1309	 8918.43819531033 
1310	 8924.53153825665 
1311	 8929.52354746633 
1312	 8934.42029404056 
1313	 8938.95698355348 
1314	 8941.10766462889 
1315	 8938.52769880726 
1316	 8942.91075291107 
1317	 8949.37100764875 
1318	 8957.01816901518 
1319	 8969.27158985995 
1320	 8981.59767551293 
1321	 8988.58435851949 
1322	 8995.40776003631 
1323	 9004.03403665663 
1324	 9013.93741669944 
1325	 9024.36509674554 
1326	 9033.10900792789 
1327	 9041.87698509352 
1328	 9048.92261102659 
1329	 9055.44856342947 
1330	 9060.07302231816 
1331	 9060.00453252315 
1332	 9053.07615186241 
1333	 9041.19329522221 
1334	 9022.26842955146 
1335	 8988.85870746301 
1336	 8946.29994024355 
1337	 8890.75884601093 
1338	 8822.61722470465 
1339	 8745.59359254456 
1340	 8661.26497608937 
1341	 8569.64537648515 
1342	 8471.72955706789 
1343	 8374.30793033971 
1344	 8278.19874218574 
1345	 8185.06503299336 
1346	 8101.89249247065 
1347	 8026.94069093414 
1348	 7959.02818267268 
1349	 7899.40174058102 
1350	 7848.88121030857 
1351	 7804.58829888463 
1352	 7772.20427362639 
1353	 7736.73939390132 
1354	 7706.44090366915 
1355	 7676.15208238761 
1356	 7641.25848111911 
1357	 7604.39865668262 
1358	 7563.72125796768 
1359	 7517.87874543567 
1360	 7465.08971776966 
1361	 7409.92898139996 
1362	 7350.71990426407 
1363	 7296.73992210706 
1364	 7250.89515790182 
1365	 7208.29431593504 
1366	 7174.94464315274 
1367	 7151.4380444804 
1368	 7134.06380851612 
1369	 7123.25958450465 
1370	 7127.86556087298 
1371	 7135.2378602226 
1372	 7148.36872110122 
1373	 7168.54863397752 
1374	 7178.93142777919 
1375	 7185.64007070614 
1376	 7185.53497422278 
1377	 7175.05076677495 
1378	 7155.77931872257 
1379	 7135.68077557135 
1380	 7114.465401355 
1381	 7094.98433036078 
1382	 7084.47668639409 
1383	 7076.9946051779 
1384	 7079.57860318239 
1385	 7091.38366271009 
1386	 7111.7131620027 
1387	 7143.85364253039 
1388	 7180.22011151225 
1389	 7217.58997240644 
1390	 7256.87491915923 
1391	 7299.66969144505 
1392	 7341.52365503941 
1393	 7387.04844127514 
1394	 7426.06712367835 
1395	 7462.87938498726 
1396	 7497.97334840804 
1397	 7529.08499273518 
1398	 7561.01221134658 
1399	 7592.39650490752 
1400	 7619.362771213 
1401	 7646.74618721048 
1402	 7672.80506193796 
1403	 7700.53967550421 
1404	 7732.06965633863 
1405	 7761.42220987398 
1406	 7793.16647794247 
1407	 7830.42676685586 
1408	 7870.82835525231 
1409	 7914.52028832245 
1410	 7962.15146123879 
1411	 8010.65736233351 
1412	 8059.60915445831 
1413	 8112.11981886617 
1414	 8162.11332510603 
1415	 8212.21670822501 
1416	 8263.48817277795 
1417	 8310.79376051657 
1418	 8361.6506896553 
1419	 8411.26201557627 
1420	 8459.84246288349 
1421	 8512.0245109752 
1422	 8557.98717916556 
1423	 8602.20441940156 
1424	 8644.03424561711 
1425	 8679.71447414427 
1426	 8713.91976062393 
1427	 8744.39778643498 
1428	 8769.08995148982 
1429	 8784.53189423952 
1430	 8792.31960501354 
1431	 8795.49109073881 
1432	 8790.42032090596 
1433	 8780.69541698933 
1434	 8768.99867203311 
1435	 8749.0486672723 
1436	 8727.39806257173 
1437	 8707.26632877562 
1438	 8685.76132979027 
1439	 8670.04769121419 
1440	 8656.46130158186 
1441	 8640.69953799937 
1442	 8630.26535313539 
1443	 8624.64191129872 
1444	 8620.53677466869 
1445	 8620.07190800248 
1446	 8625.20449563402 
1447	 8631.88936613722 
1448	 8639.69935659706 
1449	 8653.05357973978 
1450	 8674.08835355357 
1451	 8690.94569174878 
1452	 8708.14744926948 
1453	 8727.61090118239 
1454	 8745.36702484476 
1455	 8763.6710995639 
1456	 8786.64060037291 
1457	 8804.13744828067 
1458	 8815.23508219103 
1459	 8828.0975532088 
1460	 8839.51714546647 
1461	 8851.63192695941 
1462	 8872.87421437929 
1463	 8894.82231285233 
1464	 8914.98411512082 
1465	 8937.68933551079 
1466	 8957.47933127524 
1467	 8976.73927615481 
1468	 8999.29723776309 
1469	 9022.24640918507 
1470	 9044.75197087456 
1471	 9069.31874620777 
1472	 9092.62203345232 
1473	 9113.95295139442 
1474	 9136.84263247349 
1475	 9158.64587405709 
1476	 9179.47533511994 
1477	 9197.47139763603 
1478	 9212.91145260553 
1479	 9228.17338937585 
1480	 9243.84162535572 
1481	 9262.77350111957 
1482	 9280.29234598115 
1483	 9295.11863238661 
1484	 9308.60058157807 
1485	 9319.26168326398 
1486	 9331.99430275689 
1487	 9348.10414812746 
1488	 9362.94862394142 
1489	 9378.03358094349 
1490	 9395.35354123565 
1491	 9409.51601856202 
1492	 9422.13174688294 
1493	 9436.47167702606 
1494	 9448.56247799354 
1495	 9456.96749852922 
1496	 9466.44743596524 
1497	 9476.9881176154 
1498	 9480.36145033871 
1499	 9486.5423506211 
1500	 9499.24153213306 
1501	 9505.85381729641 
1502	 9517.05915502113 
1503	 9532.43425558026 
1504	 9538.01305580731 
1505	 9541.9195409811 
1506	 9546.11980171001 
1507	 9543.66820022871 
1508	 9541.89567216633 
1509	 9540.86179687778 
1510	 9533.13254843154 
1511	 9525.5992688622 
1512	 9516.77947772057 
1513	 9504.58738343983 
1514	 9493.83937608037 
1515	 9480.43158574324 
1516	 9465.45688799205 
1517	 9451.49550403494 
1518	 9438.39031996878 
1519	 9425.70619407048 
1520	 9411.67585677622 
1521	 9395.88923666813 
1522	 9379.55013132865 
1523	 9364.28554658529 
1524	 9347.16447265865 
1525	 9330.70868369391 
1526	 9315.61361010847 
1527	 9297.8387316303 
1528	 9281.95417714466 
1529	 9266.96324701481 
1530	 9250.56133979772 
1531	 9234.42688546047 
1532	 9218.65324359914 
1533	 9201.46552095665 
1534	 9181.65988908728 
1535	 9163.12985295272 
1536	 9146.025368621 
1537	 9127.93491894522 
1538	 9110.06640637755 
1539	 9094.82473091624 
1540	 9079.09851094971 
1541	 9062.19586980658 
1542	 9048.0633246144 
1543	 9032.73582309299 
1544	 9017.0467657043 
1545	 9002.93341957127 
1546	 8986.94606138341 
1547	 8972.86308634505 
1548	 8959.97998609853 
1549	 8947.86471622119 
1550	 8938.61097110807 
1551	 8929.2421479348 
1552	 8919.60201152464 
1553	 8909.63209600356 
1554	 8901.32273289224 
1555	 8891.97198795603 
1556	 8880.49885397279 
1557	 8868.90467984114 
1558	 8854.69873524592 
1559	 8839.2706455543 
1560	 8821.6043015286 
1561	 8803.60558940215 
1562	 8788.28143789608 
1563	 8773.34468415275 
1564	 8760.81722324855 
1565	 8746.51281006332 
1566	 8725.94618521105 
1567	 8704.13735755167 
1568	 8683.58952245439 
1569	 8661.50173512938 
1570	 8636.10346655716 
1571	 8611.61056642986 
1572	 8585.74827470139 
1573	 8558.33062417044 
1574	 8535.02967472224 
1575	 8512.20209911929 
1576	 8483.5000470796 
1577	 8452.41203564457 
1578	 8423.59683323319 
1579	 8393.9779920487 
1580	 8366.35121222395 
1581	 8339.42416474018 
1582	 8309.37318320843 
1583	 8276.01390894528 
1584	 8240.32619523323 
1585	 8208.1781286225 
1586	 8173.79165499493 
1587	 8136.84546392008 
1588	 8100.12990669934 
1589	 8058.45168510698 
1590	 8016.2651010493 
1591	 7973.64389005385 
1592	 7928.08729204993 
1593	 7880.3947699904 
1594	 7830.04291993404 
1595	 7778.17055923173 
1596	 7722.7133992069 
1597	 7665.45597170095 
1598	 7611.42193701081 
1599	 7557.07421739112 
1600	 7500.40580579012 
1601	 7441.93758015017 
1602	 7377.15481092903 
1603	 7308.91357412039 
1604	 7241.11288923714 
1605	 7174.47328613802 
1606	 7111.19904739301 
1607	 7047.82947958948 
1608	 6988.03030692874 
1609	 6934.19748468481 
1610	 6883.32578542839 
1611	 6838.04143946038 
1612	 6793.11149297339 
1613	 6750.47572582004 
1614	 6712.76534482657 
1615	 6677.43812281768 
1616	 6650.89294877298 
1617	 6627.97329969864 
1618	 6606.50269894408 
1619	 6585.87658879466 
1620	 6564.59275045046 
1621	 6545.4983330864 
1622	 6523.48134444792 
1623	 6501.02855735506 
1624	 6479.57260105311 
1625	 6455.78452399552 
1626	 6433.27047539629 
1627	 6409.38106883413 
1628	 6382.45551227924 
1629	 6352.49427369251 
1630	 6320.54570218665 
1631	 6287.5077463141 
1632	 6249.16264382801 
1633	 6210.58081415627 
1634	 6172.19827743915 
1635	 6132.30892243843 
1636	 6096.38222129699 
1637	 6052.63885458566 
1638	 6002.8948260806 
1639	 5952.11067996745 
1640	 5896.92714526353 
1641	 5840.96407192024 
1642	 5786.2708400276 
1643	 5724.10063008843 
1644	 5659.73651061655 
1645	 5586.13484339707 
1646	 5507.39754957072 
1647	 5419.10946182779 
1648	 5322.24098441606 
1649	 5217.78472184707 
1650	 5106.65794598648 
1651	 4984.29504018239 
1652	 4855.30819198947 
1653	 4711.34815655513 
1654	 4553.9778734317 
1655	 4387.19111340006 
1656	 4206.950182669 
1657	 4019.65702615667 
1658	 3823.54450065127 
1659	 3618.314656191 
1660	 3396.70272697749 
1661	 3183.33828006622 
1662	 2959.60983646343 
1663	 2752.71977884694 
1664	 2551.05765886358 
1665	 2362.99722294126 
1666	 2181.50227481451 
1667	 2019.80032378126 
1668	 1868.86705828121 
1669	 1742.36746674549 
1670	 1638.50656889115 
1671	 1544.01245517378 
1672	 1469.44502169643 
1673	 1400.73934900346 
1674	 1343.69518034025 
1675	 1292.38717407693 
1676	 1252.22964318245 
1677	 1214.49055289901 
1678	 1181.14824287247 
1679	 1156.04779143035 
1680	 1137.38713730657 
1681	 1126.88286895159 
1682	 1121.44353191992 
1683	 1131.83598225051 
1684	 1153.07685188884 
1685	 1194.99714906422 
1686	 1245.64893798192 
1687	 1304.73818790327 
1688	 1366.17694487125 
1689	 1438.21127957194 
1690	 1501.70635546137 
1691	 1571.19889461308 
1692	 1626.89458123878 
1693	 1675.51133155329 
1694	 1709.8018054619 
1695	 1735.1536093288 
1696	 1744.05419735502 
1697	 1736.83655161947 
1698	 1717.74429170733 
1699	 1679.67001891105 
1700	 1638.87615133526 
1701	 1586.14313046805 
1702	 1531.45509957037 
1703	 1471.19819999712 
1704	 1408.95394347131 
1705	 1339.94507962777 
1706	 1273.81279295361 
1707	 1204.64768408462 
1708	 1140.872979451 
1709	 1079.08530695096 
1710	 1020.29632348864 
1711	 963.843259199772 
1712	 912.200855878454 
1713	 862.045392671029 
1714	 820.134426250204 
1715	 784.314765887321 
1716	 754.089752167266 
1717	 729.528055010446 
1718	 711.133777760056 
1719	 699.087847506545 
1720	 691.445306666231 
1721	 689.438351689149 
1722	 692.884173936506 
1723	 700.906857665788 
1724	 715.438795166103 
1725	 735.756227038187 
1726	 765.707516461908 
1727	 798.175980618153 
1728	 835.423666973651 
1729	 875.925256405509 
1730	 915.876373364702 
1731	 958.959462918783 
1732	 1007.60230010709 
1733	 1057.80736522946 
1734	 1115.52881414643 
1735	 1166.44576270915 
1736	 1215.43673343707 
1737	 1262.34329755476 
1738	 1306.49584730662 
1739	 1347.10345917336 
1740	 1389.19134981297 
1741	 1421.56341637995 
1742	 1447.45507395858 
1743	 1466.51127782218 
1744	 1476.70782227659 
1745	 1485.01602420576 
1746	 1484.23075061787 
1747	 1488.82786542135 
1748	 1491.92127326553 
1749	 1498.75404279398 
1750	 1508.56989507722 
1751	 1519.05723621699 
1752	 1528.56274663998 
1753	 1546.39190546752 
1754	 1567.59495156554 
1755	 1594.75644049707 
1756	 1317.02198793929 
1757	 1371.00893720059 
1758	 1434.46266687129 
1759	 1488.74639651747 
1760	 1552.69432334333 
1761	 1598.17045734762 
1762	 1637.81433421581 
1763	 1678.05303753288 
1764	 1724.62837413301 
1765	 1774.24175703364 
1766	 1825.06488045395 
1767	 1886.7765033588 
1768	 1936.93276027106 
1769	 1982.49962478097 
1770	 2029.48886197798 
1771	 2068.79080434193 
1772	 2094.63658654742 
1773	 2132.43542200396 
1774	 2173.31113264124 
1775	 2211.90779020497 
1776	 2264.25394387074 
1777	 2295.7268873813 
1778	 2310.19834053729 
1779	 2332.93125194127 
1780	 2355.65619518389 
1781	 2368.22622524769 
1782	 2404.99469792796 
1783	 2433.71390385028 
1784	 2454.38025246873 
1785	 2465.06060950459 
1786	 2492.30195101227 
1787	 2501.4327029613 
1788	 2511.03258392089 
1789	 2532.03582579195 
1790	 2527.48470586547 
1791	 2524.81732776031 
1792	 2533.56471059551 
1793	 2527.69767870259 
1794	 2528.64247412082 
1795	 2533.29199875228 
1796	 2550.61526588673 
1797	 2562.58220149012 
1798	 2573.89384009268 
1799	 2581.38669649673 
1800	 2591.72418416683 
1801	 2595.4166760064 
1802	 2583.95143770895 
1803	 2582.73844013882 
1804	 2594.06746297235 
1805	 2588.52400362797 
1806	 2564.21469125817 
1807	 2562.06803887389 
1808	 2574.32047328614 
1809	 2574.91769404629 
1810	 2598.37820300938 
1811	 2637.7589911594 
1812	 2659.65523321313 
1813	 2671.00589453907 
1814	 2688.80749373813 
1815	 2699.20675185808 
1816	 2717.42091666705 
1817	 2738.57378218043 
1818	 2765.74915365353 
1819	 2793.27964188077 
1820	 2829.55489876692 
1821	 2859.62326760559 
1822	 2886.67884857296 
1823	 2918.80637688777 
1824	 2949.9543879097 
1825	 2985.88848384572 
1826	 3031.29264717903 
1827	 3070.86953080647 
1828	 3110.90745903738 
1829	 3149.08351258899 
1830	 3184.71202280302 
1831	 3217.42851797035 
1832	 3248.78775115969 
1833	 3272.31705749224 
1834	 3307.11881639011 
1835	 3341.29847703453 
1836	 3382.80495437014 
1837	 3442.8433669595 
1838	 3490.76103480535 
1839	 3541.24920398961 
1840	 3584.45461206695 
1841	 3617.44627911754 
1842	 3639.5652397214 
1843	 3659.4408979112 
1844	 3661.35600961482 
1845	 3680.12820440984 
1846	 3701.31024476218 
1847	 3724.87146110867 
1848	 3756.34506634535 
1849	 3791.88974848062 
1850	 3820.74310358511 
1851	 3845.00126514257 
1852	 3867.38400396944 
1853	 3883.13970572332 
1854	 3906.26406745077 
1855	 3932.59123556231 
1856	 3955.96509952713 
1857	 3986.8444391085 
1858	 4008.07529252683 
1859	 4011.65134763955 
1860	 4008.04631518559 
1861	 4003.38915576711 
1862	 3994.2291581907 
1863	 3986.34049461284 
1864	 3982.56841039192 
1865	 3973.81412751161 
1866	 3952.47869389195 
1867	 3943.54931859084 
1868	 3934.80235980335 
1869	 3937.78860381389 
1870	 3955.4613135281 
1871	 3977.44475239553 
1872	 3989.45501498945 
1873	 4003.95201390883 
1874	 4011.45351860261 
1875	 4012.98281388181 
1876	 4007.61077882997 
1877	 4000.67722157635 
1878	 3987.3995501528 
1879	 3971.31876220987 
1880	 3934.63336987662 
1881	 3904.90108376051 
1882	 3870.6823424294 
1883	 3817.74559435987 
1884	 3767.5697840536 
1885	 3700.20637737421 
1886	 3616.93424923352 
1887	 3529.3284335365 
1888	 3425.73350889888 
1889	 3323.88523630444 
1890	 3232.91152265254 
1891	 3131.74007425428 
1892	 3036.43835555325 
1893	 2947.56385581547 
1894	 2858.35603466755 
1895	 2786.12088367767 
1896	 2731.42622150821 
1897	 2680.80633539527 
1898	 2632.21139297228 
1899	 2601.2906591381 
1900	 2583.69898776403 
1901	 2574.38419974795 
1902	 2580.21698455467 
1903	 2594.51210800994 
1904	 2611.48523365213 
1905	 2627.34813989815 
1906	 2637.80606293343 
1907	 2644.68306709032 
1908	 2666.07880140056 
1909	 2695.82181043022 
1910	 2726.66186678787 
1911	 2774.54138572867 
1912	 2811.54201669336 
1913	 2844.4181260379 
1914	 2869.00631308612 
1915	 2902.73993879551 
1916	 2941.23192999487 
1917	 2983.42294264144 
1918	 3015.85375358707 
1919	 3054.32934284436 
1920	 3084.9168120931 
1921	 3131.05813904284 
1922	 3192.59821252122 
1923	 3247.85763895084 
1924	 3317.12254523113 
1925	 3368.50779990696 
1926	 3406.71226679912 
1927	 3446.26066354783 
1928	 3476.36634898948 
1929	 3505.61006133 
1930	 3547.69771946986 
1931	 3602.16518083062 
1932	 3643.48388747301 
1933	 3694.84512755669 
1934	 3727.153541566 
1935	 3742.76373447744 
1936	 3758.79515115129 
1937	 3763.77806386205 
1938	 3773.39460616596 
1939	 3781.56429112078 
1940	 3792.97901991208 
1941	 3796.02991026449 
1942	 3793.69618575251 
1943	 3797.58756482446 
1944	 3798.01862346912 
1945	 3802.52679152818 
1946	 3812.2529926945 
1947	 3822.92427287516 
1948	 3830.76261225916 
1949	 3842.93124967873 
1950	 3864.54605038661 
1951	 3881.91677971698 
1952	 3895.07272587971 
1953	 3916.93621731968 
1954	 3930.31721414311 
1955	 3939.91274168594 
1956	 3950.99914862329 
1957	 3963.86713390424 
1958	 3968.20694165009 
1959	 3964.27116397361 
1960	 3968.71118067353 
1961	 3973.55676131425 
1962	 3974.6615771034 
1963	 3979.5044606174 
1964	 3983.49294823988 
1965	 3981.31513956973 
1966	 3980.76508524367 
1967	 3977.5563533679 
1968	 3977.49543784708 
1969	 3972.72717743431 
1970	 3964.05464130895 
1971	 3952.52130624701 
1972	 3938.15710893378 
1973	 3926.30666312632 
1974	 3909.54720990892 
1975	 3895.41223934796 
1976	 3896.35316172584 
1977	 3878.36085592843 
1978	 3847.55206492695 
1979	 3815.98011997709 
1980	 3786.27914292952 
1981	 3740.93872506351 
1982	 3716.87412852311 
1983	 3710.14708367446 
1984	 3690.67680640421 
1985	 3676.19249934927 
1986	 3654.97359900361 
1987	 3626.65202044658 
1988	 3596.6728961 
1989	 3559.24956789476 
1990	 3528.54127016983 
1991	 3492.5115243314 
1992	 3470.53353944201 
1993	 3443.06850888641 
1994	 3423.4411996795 
1995	 3400.60185815609 
1996	 3370.21959965438 
1997	 3353.98041328198 
1998	 3348.8108246024 
1999	 3334.66993612891 
2000	 3331.76662076048 
2001	 3311.03110013067 
2002	 3274.16059558793 
2003	 3245.21571599603 
2004	 3211.60649552251 
2005	 3177.66556756475 
2006	 3149.02530689346 
2007	 3120.74250804632 
2008	 3089.68105507028 
2009	 3061.01716591684 
2010	 3040.92036072197 
2011	 3027.50615888589 
2012	 3012.86034801321 
2013	 3012.23680784178 
2014	 2994.74736044215 
2015	 2967.80187805282 
2016	 2945.63641462863 
2017	 2909.80469742543 
2018	 2887.17641316441 
2019	 2874.23343071091 
2020	 2862.58988081611 
2021	 2851.69787399608 
2022	 2840.39817291884 
2023	 2825.2533483375 
2024	 2807.71951695236 
2025	 2793.02042898377 
2026	 2777.61474986856 
2027	 2769.19824299361 
2028	 2769.41122928292 
2029	 2759.20737077998 
2030	 2748.85755130155 
2031	 2736.76982087975 
2032	 2720.75242190792 
2033	 2697.01851342811 
2034	 2680.04383567328 
2035	 2659.88889713032 
2036	 2638.07171065024 
2037	 2628.59971609879 
2038	 2617.98030911975 
2039	 2609.58062593526 
2040	 2597.23740797445 
2041	 2571.81336075446 
2042	 2557.63689831375 
2043	 2548.68326662738 
2044	 2537.28385444547 
2045	 2530.85953058121 
2046	 2520.43309961551 
2047	 2506.89434926351 
2048	 2490.08370140945 
2049	 2469.96334190539 
2050	 2455.47806312603 
2051	 2431.2297735163 
2052	 2402.04857647936 
2053	 2369.69450923714 
2054	 2327.30262678194 
2055	 2292.15038908417 
2056	 2264.83742965664 
2057	 2241.19540149499 
2058	 2231.48686226368 
2059	 2223.89888190893 
2060	 2230.01623035274 
2061	 2218.76443754176 
2062	 2209.93074189794 
2063	 2192.7393192407 
2064	 2161.52873393622 
2065	 2131.02089262839 
2066	 2109.68749351313 
2067	 2074.36985382361 
2068	 2049.23217987877 
2069	 2021.24544960949 
2070	 1995.73323989408 
2071	 1971.78657970925 
2072	 1934.45192932109 
2073	 1903.3486965886 
2074	 1848.29327538117 
2075	 1797.15806470275 
2076	 1750.88560242307 
2077	 1698.69889785625 
2078	 1651.24358002912 
2079	 1617.40621312889 
2080	 1568.54491808775 
2081	 1512.52487129864 
2082	 1462.04827148068 
2083	 1399.79499201489 
2084	 1343.72474784879 
2085	 1292.3613243516 
2086	 1239.68184981415 
2087	 1193.40088200684 
2088	 1145.28261755037 
2089	 1093.39505296583 
2090	 1050.7732141053 
2091	 1014.16849438277 
2092	 974.340768129454 
2093	 939.712704957355 
2094	 906.855507032612 
2095	 874.024146257569 
2096	 839.170141932214 
2097	 813.563419439198 
2098	 793.014061253064 
2099	 772.764233870636 
2100	 755.486763904644 
2101	 740.31810115454 
2102	 728.283052555642 
2103	 709.899589008892 
2104	 694.051130618653 
2105	 681.105844503262 
2106	 663.611457669745 
2107	 646.310947825476 
2108	 639.006859585515 
2109	 627.741274563252 
2110	 610.477956722954 
2111	 594.470302600659 
2112	 570.398895666741 
2113	 550.323808986484 
2114	 538.102259380627 
2115	 531.105468596417 
2116	 529.596280524417 
2117	 532.724719483721 
2118	 543.675778881329 
2119	 562.052986073078 
2120	 583.609047598207 
2121	 610.474702930724 
2122	 638.310271614822 
2123	 657.785485863505 
2124	 680.594179209607 
2125	 690.045441742464 
2126	 701.502487123806 
2127	 724.428626617141 
2128	 728.508839890606 
2129	 743.240128860205 
2130	 751.513674132313 
2131	 743.261101764191 
2132	 755.694897426828 
2133	 775.707587120787 
2134	 801.017353518594 
2135	 822.864091001902 
2136	 853.950629502845 
2137	 870.124180274519 
2138	 872.347885006236 
2139	 881.063256471719 
2140	 888.668223222331 
2141	 894.927149799898 
2142	 903.273325169717 
2143	 911.067113802689 
2144	 916.050152133035 
2145	 915.462995204063 
2146	 912.887669084068 
2147	 912.159240107538 
2148	 917.867079157451 
2149	 920.775407651527 
2150	 924.513382949793 
2151	 936.609781811829 
2152	 942.877846072189 
2153	 949.156992792423 
2154	 959.78977316676 
2155	 964.303571767672 
2156	 967.898002093846 
2157	 974.360188353665 
2158	 981.118085284684 
2159	 990.649014269784 
2160	 995.703290985901 
2161	 1000.46175200285 
2162	 1005.13900167586 
2163	 1006.15131204112 
2164	 1005.29336681932 
2165	 1016.81600035721 
2166	 1019.6931920717 
2167	 1026.11003901725 
2168	 1037.88606531711 
2169	 1034.93986233774 
2170	 1033.75522990335 
2171	 1027.21001305819 
2172	 1012.90049463206 
2173	 1013.77791283937 
2174	 1011.68572677943 
2175	 1012.20027240954 
2176	 1028.37139325978 
2177	 1031.58855892502 
2178	 1038.1688016011 
2179	 1038.80038208589 
2180	 1023.82299711801 
2181	 1024.82505138101 
2182	 1024.11769959535 
2183	 1020.22073542219 
2184	 1022.53900715897 
2185	 1019.42090110934 
2186	 1004.93569296952 
2187	 998.097229488251 
2188	 993.027399108217 
2189	 995.072573645431 
2190	 990.212265384988 
2191	 988.658674682977 
2192	 990.468847148234 
2193	 977.133688278772 
2194	 973.263095467491 
2195	 968.569400993301 
2196	 950.622305570669 
2197	 939.663132722357 
2198	 931.607259770438 
2199	 925.29416509156 
2200	 909.047866724532 
2201	 896.744296954632 
2202	 890.089217980885 
2203	 862.510221433333 
2204	 846.240917649138 
2205	 837.594085099893 
2206	 806.502222939763 
2207	 779.195813928185 
2208	 762.555272038839 
2209	 743.127671318685 
2210	 725.848761284387 
2211	 718.140506019165 
2212	 706.758431677655 
2213	 689.863115057084 
2214	 674.574467288171 
2215	 666.676267284662 
2216	 647.901740302912 
2217	 621.705584545637 
2218	 600.715717669001 
2219	 578.687067505987 
2220	 551.138130172032 
2221	 529.616616842727 
2222	 506.53426798469 
2223	 479.850546298669 
2224	 461.101737573005 
2225	 432.016454935738 
2226	 398.132422998048 
2227	 368.955272074538 
2228	 329.815797967685 
2229	 303.07532007857 
2230	 280.357689985583 
2231	 241.3385680489 
2232	 202.24256450436 
2233	 161.859128437579 
2234	 126.90231952339 
2235	 109.270647702301 
2236	 94.4724166042457 
2237	 81.6612097972573 
2238	 73.1673606011679 
2239	 62.2659735462362 
2240	 51.8417730530174 
2241	 41.1632837879592 
2242	 30.7771770084641 
2243	 26.3530854784669 
2244	 26.5681492592197 
2245	 24.6377366516613 
2246	 29.2366341795167 
2247	 26.3548035008735 
2248	 16.2951191292059 
2249	 11.284048417535 
2250	 6.66908493657716 
2251	 5.01391080194726 
2252	 4.60061799210967 
2253	 6.74303778064426 
2254	 12.035057551117 
2255	 13.8388057793999 
2256	 18.4166095818048 
2257	 16.3292350856289 
2258	 12.1486879388049 
2259	 18.3137768831469 
2260	 20.2683447862282 
2261	 27.5286949351151 
2262	 33.2086312109843 
2263	 32.6321350147469 
2264	 35.8595941671977 
2265	 37.9258637505226 
2266	 49.7304820915784 
2267	 57.0908695144748 
2268	 61.903034131886 
2269	 63.652835050011 
2270	 50.9969849225145 
2271	 41.1865516914904 
2272	 32.2981727156966 
2273	 24.6478896782179 
2274	 16.9106561338426 
2275	 9.19361728445533 
2276	-0.74095210770821 
2277	-12.9592029961536 
2278	-12.8886085079091 
2279	-3.40517643975005 
2280	-4.03861560937613 
2281	 6.04069395200457 
2282	 16.5846972562831 
2283	 2.21936126927506 
2284	 0.771963545238106 
2285	-4.85147878095459 
2286	-7.18060620926223 
2287	-5.72860001833065 
2288	-3.29582926162238 
2289	 0.350518702496016 
2290	 5.55224212150181 
2291	 7.46797655775729 
2292	 14.2174040587294 
2293	 31.6490775350769 
2294	 33.7905911015943 
2295	 31.6492891239197 
2296	 27.5025213750094 
2297	 10.8754207477474 
2298	 5.39857342855824 
2299	 2.3053931208388 
2300	 0.457433599919418 
2301	 7.22873841395038 
2302	 6.65773363091109 
2303	 4.82972356879756 
2304	 4.725497689807 
2305	-2.74359028133674 
2306	-6.97723671694894 
2307	-9.46903103892812 
2308	-10.3592675301871 
2309	-10.2040221442829 
2310	-4.02805363749076 
2311	-0.315180904662281 
2312	 3.14707824169806 
2313	 0.230697997733262 
2314	 0.300372951395525 
2315	 6.80340986006429 
2316	 12.6758244654545 
2317	 22.708913712312 
2318	 31.8648235048141 
2319	 36.8693684047002 
2320	 37.990741731656 
2321	 34.4458956230265 
2322	 29.5247519079612 
2323	 18.1821709021961 
2324	 7.60321228427123 
2325	 9.56372529057065 
2326	 12.3066132766068 
2327	 16.5847353412412 
2328	 23.023181369397 
2329	 21.3463932194888 
2330	 10.7868675905615 
2331	-2.57185515316628 
2332	-10.6572610878387 
2333	-15.8886948662789 
2334	-9.43514074859013 
2335	-0.110093885650346 
2336	 5.17953639579491 
2337	 12.5768037371629 
2338	 13.0465684737742 
2339	 20.076762821045 
2340	 26.5576779169858 
2341	 32.7060588536675 
2342	 38.5223904189182 
2343	 32.5014891710684 
2344	 36.7432566738225 
2345	 29.6970774284979 
2346	 16.2107030759765 
2347	 13.6870698392875 
2348	-1.37450139765705 
2349	-12.0723057379559 
2350	-14.9333247237447 
2351	-17.7504955365813 
2352	-16.0066734151626 
2353	-11.3782480613771 
2354	-8.71151092040453 
2355	-8.66989208139475 
2356	-7.73172018904133 
2357	-8.32904829983706 
2358	 4.3501951765522 
2359	 16.2421769206854 
2360	 20.9583175316228 
2361	 34.5369851903006 
2362	 34.9063573155238 
2363	 35.2412068091655 
2364	 38.8661763322595 
2365	 28.6833595849394 
2366	 22.0366139391185 
2367	 19.2483549723686 
2368	 12.4747252824559 
2369	 4.55673855327105 
2370	 2.8852936113719 
2371	-11.3220504778922 
2372	-20.3241121901036 
2373	-11.6706393210707 
2374	-15.3950081098003 
2375	-0.724144369098306 
2376	 10.1503127095653 
2377	 3.4972118584797 
2378	 13.8759798543829 
2379	 15.7544542377261 
2380	 14.5876553063412 
2381	 25.9659333675032 
2382	 26.4132511832389 
2383	 14.6040953641528 
2384	 11.7903145445026 
2385	 11.8573586378513 
2386	 18.5700514082252 
2387	 34.6089742338543 
2388	 46.300414751013 
2389	 46.7829614422386 
2390	 38.8141294675324 
2391	 37.2509811433777 
2392	 32.0317668487195 
2393	 35.0633377058247 
2394	 35.0938098069986 
2395	 15.1293416754221 
2396	 3.81174253568225 
2397	-15.8330021446026 
2398	-25.1747219162556 
2399	-10.2928189939946 
2400	-3.6322589505165 
2401	 11.5389927063408 
2402	 13.7782859576941 
2403	 5.08745275492925 
2404	 3.82607422557045 
2405	-4.41942574177922 
2406	 1.51071333308135 
2407	-0.349007962709588 
2408	-2.69542045135663 
2409	-0.566155699725529 
2410	-19.0458368117736 
2411	-27.5993164354589 
2412	-33.7123761103144 
2413	-38.0567045070841 
2414	-19.5268867966967 
2415	 0.887382845749666 
2416	 13.3130774089855 
2417	 25.152323490883 
2418	 28.2150999359584 
2419	 22.0185754098226 
2420	 17.2927071933818 
2421	 16.9477329106199 
2422	 12.2912095509538 
2423	 9.7594399182692 
2424	 16.4061162851939 
2425	 11.098374586543 
2426	 7.20109406721262 
2427	 1.91797244449028 
2428	-6.95052684935567 
2429	-13.7416184758805 
2430	-32.4627891131997 
2431	-33.6832906480002 
2432	-27.2966512223166 
2433	-17.4259598953647 
2434	 1.40153520812324 
2435	 7.86630393029786 
2436	 6.48209841899846 
2437	 0.236526668709324 
2438	 3.99776724736598 
2439	 8.65370341737158 
2440	 7.70933366834747 
2441	 14.6505207895664 
2442	 13.3876229965618 
2443	 13.6617307143268 
2444	 20.0061568121672 
2445	 13.1728526207257 
2446	 9.61530555495738 
2447	 3.46268369490244 
2448	-11.4712020379574 
2449	-10.5059372908382 
2450	-3.84532215302193 
2451	-0.692913506432676 
2452	 5.15621251302413 
2453	 2.88232471468884 
2454	-10.0730191007836 
2455	-23.3087253556484 
2456	-33.1599740124058 
2457	-45.4104513980192 
2458	-51.2627717451532 
2459	-39.6898320904967 
2460	-28.0920731119985 
2461	-12.3800527251955 
2462	 6.67217266477437 
2463	 11.4137395659591 
2464	 18.2830015094307 
2465	 27.4520621409522 
2466	 26.5021370132902 
2467	 12.9790092225618 
2468	 5.00245299992781 
2469	 4.11238725977315 
2470	-1.4952666830514 
2471	 9.35966362238926 
2472	 15.0841354367883 
2473	 14.6638642120485 
2474	 32.8402269625997 
2475	 35.7810035312264 
2476	 41.3188988576467 
2477	 49.8779296547238 
2478	 34.8017906229506 
2479	 35.3461708669124 
2480	 33.2759572962706 
2481	 27.9433748905556 
2482	 29.4172667425104 
2483	 15.4804501971523 
2484	 9.66830674117582 
2485	 4.50311572318751 
2486	 4.75246345101867 
2487	 8.76648781870291 
2488	 14.7791638148884 
2489	 20.2941855998872 
2490	 28.3875740970875 
2491	 53.7981594610704 
2492	 61.2721374215929 
2493	 53.5926001051709 
2494	 46.9944820278889 
2495	 25.9197158016042 
2496	 4.39801965944068 
2497	 5.16758983289828 
2498	-0.171872618020297 
2499	-0.493214135066917 
2500	 6.09067701278475 
