Wavelength	3mm_BluePLA00000.asd
350	 2.63305657623305 
351	 2.49846683308544 
352	 0.786808683350718 
353	 0.586440021927285 
354	 0.43929742412205 
355	 0.317285925478021 
356	 0.449140916401315 
357	 1.42875395087969 
358	 1.19530843413602 
359	 0.2697608773002 
360	 1.28974730160256 
361	 2.05231086169704 
362	 1.71147751008899 
363	 0.28618770247755 
364	-5.45205626742946E-02 
365	-0.549975609813201 
366	-1.20035370991491 
367	-0.301455828434788 
368	 0.853101071468486 
369	 1.40444665766688 
370	 1.01670360854657 
371	 2.09599640285393 
372	 2.09395257913303 
373	 0.142388154199005 
374	-0.866518784679722 
375	-0.418047261782975 
376	 0.567844850189067 
377	 0.444285280714445 
378	 1.1493298438956 
379	 1.33450206560752 
380	 0.146439040938859 
381	-0.624982070848179 
382	-0.239222706739601 
383	 0.792737877965729 
384	 0.847959820749938 
385	 1.66606095224707 
386	 2.53483589444486 
387	 2.29348439250556 
388	 0.299845110715061 
389	 0.559386442252562 
390	 3.24519038020499 
391	 2.39052310796112 
392	 1.52405552020462 
393	 1.41256279006399 
394	 1.77096317146528 
395	 1.58627326653793 
396	 2.43783342933032 
397	 4.49603415776227 
398	 3.32121044661618 
399	 2.45204657460521 
400	 2.92226055116384 
401	 3.94677506191264 
402	 5.13341209036731 
403	 5.38882026361402 
404	 4.34541158160022 
405	 5.49876265673901 
406	 6.23208110897439 
407	 5.97064175965739 
408	 7.74939045029955 
409	 7.9182353139282 
410	 7.89537097461193 
411	 10.6015875310209 
412	 10.6896878908476 
413	 11.3276918883853 
414	 14.8269836395015 
415	 18.3950922758713 
416	 19.364603152719 
417	 19.0342915408933 
418	 22.3316924724389 
419	 24.4232508438664 
420	 26.186750611977 
421	 29.4453025280977 
422	 32.1635941352174 
423	 35.6721420505221 
424	 40.188493694092 
425	 43.3139255343896 
426	 47.1604047222735 
427	 51.7093106200287 
428	 55.89860174138 
429	 60.2493459349512 
430	 64.1203696085041 
431	 67.1449225046531 
432	 70.6348989503974 
433	 74.0982475866775 
434	 77.295882933725 
435	 80.3078779791859 
436	 83.7918083785083 
437	 87.0322319960056 
438	 88.8816028230147 
439	 89.6358554058598 
440	 91.0106834068954 
441	 93.6408804379382 
442	 94.8893800269836 
443	 95.6265280372571 
444	 96.6193459119315 
445	 98.6523832224147 
446	 98.5003640070814 
447	 97.2225014810231 
448	 96.7709995411375 
449	 95.4480711899418 
450	 95.5692421637622 
451	 97.597168255222 
452	 97.5534484378388 
453	 96.4492945047286 
454	 94.9527347437448 
455	 93.7406113129172 
456	 93.3531068118254 
457	 93.4159394708071 
458	 93.1740698932805 
459	 91.2692642906694 
460	 89.9137405724995 
461	 89.7421031260541 
462	 88.304837274 
463	 86.5951787273817 
464	 85.3915197632946 
465	 85.4079682279152 
466	 85.3050839918377 
467	 83.6844265644703 
468	 80.2336951491957 
469	 78.7181398682905 
470	 77.8318786361155 
471	 76.7219157325388 
472	 75.3031462099731 
473	 74.9445541880676 
474	 74.5121835154259 
475	 71.9476401201922 
476	 70.7980305966491 
477	 70.4598247922095 
478	 69.8139595730305 
479	 68.6667231994305 
480	 67.6906331808197 
481	 66.703309403274 
482	 64.103863286043 
483	 63.5062896338882 
484	 63.9410111830276 
485	 62.6376126984143 
486	 61.671754661822 
487	 60.4760488281407 
488	 58.4783427501839 
489	 56.3672308658338 
490	 54.1834087974316 
491	 52.5259978728534 
492	 52.908473914129 
493	 53.0428932014334 
494	 52.0988366010032 
495	 50.0353127613047 
496	 48.7352670642492 
497	 48.0794186987592 
498	 47.2031572445195 
499	 43.5802820147833 
500	 41.5163093527996 
501	 41.765202575351 
502	 40.5757306069491 
503	 38.9112891896379 
504	 36.8450862958802 
505	 34.4280181006 
506	 33.4923333447469 
507	 33.721276746686 
508	 34.2305822037107 
509	 33.6326941535894 
510	 32.4905352094932 
511	 31.1765291429681 
512	 29.8148712852966 
513	 28.2364100256665 
514	 26.9800634765161 
515	 26.7809331461046 
516	 26.5462368137272 
517	 26.401227196972 
518	 26.2366956628189 
519	 24.1681971722577 
520	 22.1976766099606 
521	 21.6661380214769 
522	 23.3581668636408 
523	 23.1414119250826 
524	 21.6471915753052 
525	 21.6468113111563 
526	 20.8119453231655 
527	 19.3432489075969 
528	 18.0335987778888 
529	 18.3284618756083 
530	 18.148028166787 
531	 16.7890158915266 
532	 15.79971739507 
533	 14.7961877238338 
534	 13.478275884624 
535	 11.613055546097 
536	 11.3629791031647 
537	 11.4331119221892 
538	 10.3299951006932 
539	 9.09604300464378 
540	 8.57616828537815 
541	 8.60226527851642 
542	 6.93791078729948 
543	 6.32775309153675 
544	 7.08445556310385 
545	 8.0224205161624 
546	 6.11019552745195 
547	 4.0044559293069 
548	 4.77889492842619 
549	 5.56141992994378 
550	 5.63714469561549 
551	 4.91658898384834 
552	 4.08884640534654 
553	 4.15211746610824 
554	 4.60365777872109 
555	 3.73670585284066 
556	 3.85446955846191 
557	 4.42812975829728 
558	 4.3763005307299 
559	 4.69739476011801 
560	 4.7653456449849 
561	 4.42591793868901 
562	 5.11712956512126 
563	 5.75314225010363 
564	 5.38884502267563 
565	 3.0065300776082 
566	 2.07379408465713 
567	 2.64721059376297 
568	 3.45719354104676 
569	 3.30388710475548 
570	 2.8543754590563 
571	 2.78498525643126 
572	 3.17842687309971 
573	 2.35045228667304 
574	 0.62662232713727 
575	 0.863287905162523 
576	 0.592438006525353 
577	 0.348948246640392 
578	 1.50901743147404 
579	 0.403015243321527 
580	-0.745582492752432 
581	 0.199267566794651 
582	 1.6794637976934 
583	 1.53651443191413 
584	-6.49068339810253E-02 
585	 0.731808977597907 
586	 1.46268989489665 
587	 1.73350140175861 
588	 1.95360978566978 
589	 0.445682554048123 
590	-0.498967464856288 
591	 1.11358027369 
592	 2.04260985447506 
593	 1.55862351687316 
594	 0.397222958590486 
595	 2.37938197765469 
596	 1.93233352515659 
597	-0.747405944317063 
598	-1.60927476439017 
599	 0.103949708909312 
600	 1.52261570620176 
601	-0.265635500285784 
602	-1.06400688413187 
603	-0.711771077281192 
604	 0.234641592636613 
605	 0.337370456607552 
606	 1.07765692922863 
607	 1.89469822715659 
608	 0.274832468350247 
609	 0.870299475339839 
610	 2.22541403450731 
611	 1.33591191259177 
612	 1.45096303967128 
613	 1.62163048341433 
614	 1.13423176670457 
615	 1.57479008349597 
616	 2.25839247117276 
617	 2.69082896956679 
618	 2.51454692283641 
619	 2.32400265752984 
620	 2.54586558114494 
621	 3.41376058903233 
622	 3.36285205621044 
623	 3.17195193712057 
624	 3.4612289129129 
625	 2.40477334233827 
626	 1.90618959631637 
627	 2.41449158093405 
628	 1.80036848633574 
629	 1.92756889085494 
630	 2.83592351106274 
631	 3.60296211184185 
632	 3.39764198188655 
633	 2.48684085818177 
634	 1.53353140766759 
635	 1.39675635620227 
636	 2.16311110253306 
637	 3.34333908479333 
638	 3.37586566231559 
639	 2.71557354776963 
640	 2.33228668003393 
641	 3.71488176806452 
642	 3.12125053406632 
643	 1.91425178773594 
644	 2.4662920746271 
645	 3.22055060287197 
646	 3.27322131718943 
647	 2.63751326606407 
648	 3.70366924609601 
649	 3.41000074479423 
650	 1.87891808720814 
651	 2.32929414740138 
652	 3.60434077338123 
653	 4.74049900236672 
654	 4.93738074342356 
655	 5.75176280144416 
656	 6.53746049407201 
657	 6.786034608917 
658	 7.31058732788931 
659	 8.17602752814907 
660	 9.31855699895081 
661	 10.3800725437683 
662	 13.2786550971645 
663	 17.6773580410155 
664	 22.2094559020967 
665	 26.6048037257518 
666	 33.2407063203381 
667	 43.4262088226285 
668	 52.2327811494076 
669	 63.48463962014 
670	 78.9156407341037 
671	 96.8146115482381 
672	 116.556372978238 
673	 139.166264431133 
674	 166.635235651407 
675	 196.619102257289 
676	 230.544719502156 
677	 270.206061287819 
678	 315.075025984533 
679	 364.476279372937 
680	 418.513548403271 
681	 478.891419530417 
682	 544.578342378481 
683	 615.397775700997 
684	 691.64139825997 
685	 772.396922284089 
686	 857.997453493087 
687	 948.885984818886 
688	 1044.13570980066 
689	 1143.53327996344 
690	 1246.19618769518 
691	 1349.38645110435 
692	 1455.01763723238 
693	 1562.91522201833 
694	 1671.26391603709 
695	 1778.27326615153 
696	 1884.2481654742 
697	 1989.83117608237 
698	 2091.95448477088 
699	 2193.36738350484 
700	 2294.35692970799 
701	 2386.65180821805 
702	 2477.56865971547 
703	 2568.20377964316 
704	 2653.67297799256 
705	 2738.54812019899 
706	 2818.96804500368 
707	 2889.74886408534 
708	 2961.53430177243 
709	 3030.4586461172 
710	 3093.68698210795 
711	 3157.36729210991 
712	 3216.89080971778 
713	 3271.26463189743 
714	 3323.44749923456 
715	 3373.32561925148 
716	 3421.2514929529 
717	 3467.52393835698 
718	 3511.45410407971 
719	 3552.91519641417 
720	 3591.91660640617 
721	 3628.77265480239 
722	 3661.81838920949 
723	 3691.73748082979 
724	 3722.22225102079 
725	 3752.46844486893 
726	 3782.29849218793 
727	 3811.35444396805 
728	 3836.87506264708 
729	 3860.24839026169 
730	 3883.50651144663 
731	 3908.3576173414 
732	 3933.46180272064 
733	 3957.91517045589 
734	 3981.43420734813 
735	 4002.93755310912 
736	 4023.17577180958 
737	 4043.54354683217 
738	 4061.55389517024 
739	 4078.7358870437 
740	 4096.51558942678 
741	 4113.83473878096 
742	 4129.84212857609 
743	 4143.65246241567 
744	 4153.94067673194 
745	 4165.17602622899 
746	 4177.02949021248 
747	 4187.17651105201 
748	 4197.04957112913 
749	 4206.47179667126 
750	 4215.12866811122 
751	 4223.37055838814 
752	 4228.82674360444 
753	 4231.9223962404 
754	 4236.78081281983 
755	 4242.27293193828 
756	 4246.70678022037 
757	 4248.11560087373 
758	 4247.87186700942 
759	 4244.36978166739 
760	 4238.26251694523 
761	 4238.58946547191 
762	 4241.18699754134 
763	 4243.68799515013 
764	 4245.78943468575 
765	 4246.6632044392 
766	 4246.00836923218 
767	 4243.77866349063 
768	 4239.19189248917 
769	 4235.41538034106 
770	 4233.77094141404 
771	 4228.85296342432 
772	 4223.77305988915 
773	 4219.00358415754 
774	 4212.37320599623 
775	 4204.9286625724 
776	 4198.42693332387 
777	 4194.10982781602 
778	 4187.06983601461 
779	 4178.84949839728 
780	 4170.45464928599 
781	 4159.46228875599 
782	 4148.57476475125 
783	 4138.42581170975 
784	 4127.99720506278 
785	 4117.35318622435 
786	 4105.381486127 
787	 4091.56498970319 
788	 4080.7938263334 
789	 4068.38040994267 
790	 4053.26294203948 
791	 4044.03768439779 
792	 4030.53725686518 
793	 4013.28626267126 
794	 3999.23096059934 
795	 3983.74487773158 
796	 3967.72004458635 
797	 3952.72121291979 
798	 3938.18083679463 
799	 3923.49163341613 
800	 3908.33996925858 
801	 3892.81269254875 
802	 3877.03047998094 
803	 3861.67576218183 
804	 3847.52606787706 
805	 3833.13289932209 
806	 3817.43139442051 
807	 3800.13851718868 
808	 3783.07000328417 
809	 3765.27894169603 
810	 3747.14377364874 
811	 3730.52892999441 
812	 3714.03897967492 
813	 3696.94591205142 
814	 3678.80763866147 
815	 3659.56189886951 
816	 3641.99876744416 
817	 3626.43418772985 
818	 3606.90240028524 
819	 3588.0114931279 
820	 3570.3987199256 
821	 3552.17449452726 
822	 3532.4682489958 
823	 3512.41128704151 
824	 3493.2458017426 
825	 3474.11683225273 
826	 3456.8583330511 
827	 3440.58759323019 
828	 3420.12790142987 
829	 3400.3396059923 
830	 3381.19461780376 
831	 3360.73282244446 
832	 3338.16742795324 
833	 3313.58864275117 
834	 3288.41445238861 
835	 3267.00921604091 
836	 3247.80053250176 
837	 3230.0478826187 
838	 3213.58237013496 
839	 3201.29486847278 
840	 3190.61311810107 
841	 3177.82652339314 
842	 3161.05134698207 
843	 3143.51942976968 
844	 3126.62713430667 
845	 3108.63241918709 
846	 3090.78532888844 
847	 3072.80090614496 
848	 3053.82406797792 
849	 3033.73703412701 
850	 3014.0805786259 
851	 2995.72499177876 
852	 2977.55992032172 
853	 2958.53881541631 
854	 2938.83866932 
855	 2919.56828502265 
856	 2899.49073765148 
857	 2879.52384290738 
858	 2860.73498530089 
859	 2843.05280609255 
860	 2824.20493812738 
861	 2803.90164130903 
862	 2784.41396314845 
863	 2765.22162201556 
864	 2745.4368162623 
865	 2724.49257300036 
866	 2705.61296308542 
867	 2686.26949273878 
868	 2665.65751393045 
869	 2647.64653347964 
870	 2628.91006192864 
871	 2609.2711975476 
872	 2590.09186585186 
873	 2571.59722351425 
874	 2553.28670668566 
875	 2534.46400571636 
876	 2514.20036606552 
877	 2493.89661567831 
878	 2473.10718508264 
879	 2450.04186813811 
880	 2429.87344296994 
881	 2409.87250409851 
882	 2386.97149491889 
883	 2364.47343761159 
884	 2342.97224260691 
885	 2321.00397443661 
886	 2294.67685620877 
887	 2269.5305271972 
888	 2245.50266452095 
889	 2220.95656192334 
890	 2195.61525051844 
891	 2172.10696225035 
892	 2150.91213679122 
893	 2128.82545207118 
894	 2108.13370334175 
895	 2088.97463845245 
896	 2070.73332716862 
897	 2053.42622807094 
898	 2036.56318325708 
899	 2020.76582883124 
900	 2009.35498282289 
901	 1997.68084256777 
902	 1986.86239504367 
903	 1980.22374983991 
904	 1973.30958132673 
905	 1967.23597992608 
906	 1961.61081638152 
907	 1950.38653924309 
908	 1937.88182725421 
909	 1925.86641595415 
910	 1914.52133656594 
911	 1901.22854018815 
912	 1887.23099080193 
913	 1873.70759430687 
914	 1859.92608875741 
915	 1845.70269575839 
916	 1831.07108014638 
917	 1816.23448360242 
918	 1801.07963965081 
919	 1786.52939563052 
920	 1772.6845344884 
921	 1756.70813491652 
922	 1740.58396268522 
923	 1725.07887677335 
924	 1710.00066867049 
925	 1693.86836401633 
926	 1678.13505752876 
927	 1663.53777039559 
928	 1646.70874345722 
929	 1630.96354987122 
930	 1615.75256736623 
931	 1597.83780605488 
932	 1580.30110281433 
933	 1564.1200873403 
934	 1549.05896094851 
935	 1532.61345010248 
936	 1515.83909115932 
937	 1500.60801952141 
938	 1488.86283210513 
939	 1472.71333471013 
940	 1456.02487138006 
941	 1442.15748054906 
942	 1426.85672488862 
943	 1411.62366082798 
944	 1396.6424251076 
945	 1381.28928439838 
946	 1364.91840112201 
947	 1349.72609612817 
948	 1336.49271388745 
949	 1321.43398967799 
950	 1306.31749790264 
951	 1291.89774155359 
952	 1278.18651718183 
953	 1262.49227474028 
954	 1247.66202220911 
955	 1234.6806130418 
956	 1218.89781291317 
957	 1204.44034433112 
958	 1190.96638964644 
959	 1176.37530190452 
960	 1160.37118674892 
961	 1145.4875958362 
962	 1132.00549821876 
963	 1116.0815900952 
964	 1100.47985258788 
965	 1085.92354584552 
966	 1831.89102954666 
967	 1853.68587931896 
968	 1877.14093160732 
969	 1901.59137961068 
970	 1927.46563985518 
971	 1956.22637087451 
972	 1986.99924372566 
973	 2018.64474086018 
974	 2055.08466844984 
975	 2087.67421095917 
976	 2118.24949618426 
977	 2150.89571001758 
978	 2182.84449040138 
979	 2214.69622253174 
980	 2244.48349335792 
981	 2268.29076035899 
982	 2291.54136557198 
983	 2313.12690038365 
984	 2332.08966827987 
985	 2357.63981375314 
986	 2380.61595304126 
987	 2402.4601917934 
988	 2422.91428220593 
989	 2443.72870521211 
990	 2462.03508485186 
991	 2477.3366241517 
992	 2494.38668258255 
993	 2511.61965255258 
994	 2527.79908754626 
995	 2544.59714893088 
996	 2560.84665438852 
997	 2575.87729331028 
998	 2592.40204288728 
999	 2611.62914492756 
1000	 2628.53695351666 
1001	 2643.47127495509 
1002	 2660.54953056634 
1003	 2674.47485517643 
1004	 2689.71310107223 
1005	 2707.73556082013 
1006	 2729.46879646483 
1007	 2748.28111674599 
1008	 2766.89721379659 
1009	 2787.68217012635 
1010	 2808.92774232697 
1011	 2828.55953530456 
1012	 2848.67806228429 
1013	 2870.99436021879 
1014	 2891.18230877578 
1015	 2909.08192154631 
1016	 2928.55346589972 
1017	 2947.93292738054 
1018	 2964.40018746531 
1019	 2983.12907466131 
1020	 3001.68627377415 
1021	 3019.51674727238 
1022	 3040.97670006474 
1023	 3059.85875077481 
1024	 3078.48442056751 
1025	 3097.10480052307 
1026	 3115.68479541176 
1027	 3131.26111329257 
1028	 3147.900858096 
1029	 3166.80900543837 
1030	 3184.7369708872 
1031	 3200.12794266204 
1032	 3218.51174055967 
1033	 3238.90091005166 
1034	 3256.95309802043 
1035	 3274.20988258428 
1036	 3291.10723517729 
1037	 3307.17400141632 
1038	 3321.28713951031 
1039	 3339.05235894504 
1040	 3356.27256493427 
1041	 3371.44290649822 
1042	 3389.12813341949 
1043	 3409.75558554769 
1044	 3427.82818696557 
1045	 3446.32161870357 
1046	 3469.66863901379 
1047	 3490.47480541028 
1048	 3508.08285786996 
1049	 3526.40546538203 
1050	 3540.66024845753 
1051	 3552.93926303002 
1052	 3569.23401225866 
1053	 3585.99820682212 
1054	 3603.37202157946 
1055	 3621.3283870435 
1056	 3638.62197836377 
1057	 3655.3908097125 
1058	 3671.4493322347 
1059	 3686.17632738048 
1060	 3700.65344082405 
1061	 3714.551161501 
1062	 3725.88836999791 
1063	 3739.59988546808 
1064	 3755.3294744775 
1065	 3770.19700827083 
1066	 3788.64084494287 
1067	 3805.71928487461 
1068	 3819.90971498597 
1069	 3833.80843436048 
1070	 3848.626105533 
1071	 3866.02880816161 
1072	 3885.73628508842 
1073	 3904.73359077628 
1074	 3921.80511359877 
1075	 3935.82724212852 
1076	 3952.98878347952 
1077	 3969.45047612391 
1078	 3988.46831545662 
1079	 4012.02398065656 
1080	 4031.8116783461 
1081	 4049.52441542054 
1082	 4069.2087609674 
1083	 4088.70161673079 
1084	 4107.71987872729 
1085	 4128.12631389156 
1086	 4152.57867249244 
1087	 4178.41847488573 
1088	 4202.23310592054 
1089	 4226.64066072374 
1090	 4253.19905319477 
1091	 4279.35050985013 
1092	 4304.41847425434 
1093	 4331.61901929497 
1094	 4359.29409716744 
1095	 4389.5070919487 
1096	 4421.58382739374 
1097	 4454.08912542361 
1098	 4490.73926068092 
1099	 4524.02826807778 
1100	 4554.0807965299 
1101	 4587.46201819937 
1102	 4618.70536589481 
1103	 4655.07415857716 
1104	 4695.90689067937 
1105	 4737.98476733498 
1106	 4781.91265111392 
1107	 4828.30597706636 
1108	 4872.61460966585 
1109	 4914.05769100458 
1110	 4956.7775426442 
1111	 4998.99917055481 
1112	 5041.00085867691 
1113	 5082.2880571831 
1114	 5125.69964586546 
1115	 5169.37274621583 
1116	 5213.01526593247 
1117	 5260.80246745232 
1118	 5303.12827066289 
1119	 5344.01105946402 
1120	 5381.4607484229 
1121	 5416.3902868779 
1122	 5447.71160633109 
1123	 5474.63136037044 
1124	 5500.83913149189 
1125	 5524.33872422295 
1126	 5545.67024520612 
1127	 5565.95919241987 
1128	 5584.81382160602 
1129	 5603.03246854598 
1130	 5619.28736246733 
1131	 5635.75980604344 
1132	 5649.29122343437 
1133	 5669.34070019733 
1134	 5690.23439046901 
1135	 5714.46816041793 
1136	 5743.70169433168 
1137	 5773.89807686756 
1138	 5804.33413562413 
1139	 5838.94802547612 
1140	 5882.36566596608 
1141	 5918.52908054771 
1142	 5957.45330609113 
1143	 5989.09329238103 
1144	 6017.95755536641 
1145	 6038.26086396372 
1146	 6055.24145951757 
1147	 6062.02358704743 
1148	 6060.05864653381 
1149	 6049.90784779474 
1150	 6028.9174250484 
1151	 5995.55300183015 
1152	 5961.84301143248 
1153	 5918.90643716742 
1154	 5874.84756849046 
1155	 5828.50489178115 
1156	 5777.86918352442 
1157	 5718.57306395673 
1158	 5663.77299824518 
1159	 5605.64594993397 
1160	 5552.88027840254 
1161	 5501.42487868335 
1162	 5454.06391226613 
1163	 5411.10809792764 
1164	 5369.48499746201 
1165	 5328.78397013885 
1166	 5293.21522494078 
1167	 5261.60221025852 
1168	 5231.70528195706 
1169	 5203.56489262907 
1170	 5183.393617418 
1171	 5171.08340958869 
1172	 5159.69537024933 
1173	 5167.45660797446 
1174	 5185.83088005021 
1175	 5219.01535014381 
1176	 5262.94074558862 
1177	 5326.66821322713 
1178	 5407.21588050669 
1179	 5500.52581630973 
1180	 5615.10198331824 
1181	 5733.12602342051 
1182	 5867.00796787276 
1183	 5998.50430533848 
1184	 6140.04402950115 
1185	 6276.93838995876 
1186	 6420.45656130736 
1187	 6551.05883795455 
1188	 6681.70255709021 
1189	 6798.51589088756 
1190	 6901.08053369878 
1191	 6999.90446735987 
1192	 7088.55248969299 
1193	 7162.28703374597 
1194	 7224.95373264107 
1195	 7280.63263671766 
1196	 7333.17135373964 
1197	 7376.5612789885 
1198	 7419.54286414573 
1199	 7458.11213833328 
1200	 7497.51525978174 
1201	 7532.8667948658 
1202	 7570.78876483371 
1203	 7608.99257042379 
1204	 7648.39253268198 
1205	 7689.73924715332 
1206	 7728.18333987356 
1207	 7766.51970683056 
1208	 7804.72841596416 
1209	 7839.77890809635 
1210	 7876.45824357861 
1211	 7913.70216605477 
1212	 7952.74490946482 
1213	 7992.62304890646 
1214	 8031.08828086392 
1215	 8071.63551774289 
1216	 8112.02866602943 
1217	 8149.06690879223 
1218	 8185.11689989715 
1219	 8218.91824756343 
1220	 8250.87526006347 
1221	 8285.81916451198 
1222	 8321.92813432993 
1223	 8358.56608203043 
1224	 8398.58109895 
1225	 8434.24876386949 
1226	 8469.48322633305 
1227	 8500.40896686946 
1228	 8526.03986758044 
1229	 8554.11224957708 
1230	 8581.39660163763 
1231	 8608.05291875238 
1232	 8637.4096040503 
1233	 8662.17988267517 
1234	 8681.63925457895 
1235	 8702.82187520245 
1236	 8721.40676186659 
1237	 8742.46333513419 
1238	 8768.13091411968 
1239	 8791.91306448791 
1240	 8812.70888842136 
1241	 8832.41386576274 
1242	 8851.22138407182 
1243	 8868.97645372873 
1244	 8887.52022031745 
1245	 8908.74353410199 
1246	 8927.68998351764 
1247	 8944.35199753082 
1248	 8961.86371263242 
1249	 8979.32099443543 
1250	 8996.37482271029 
1251	 9012.20929522183 
1252	 9028.59080535249 
1253	 9044.00773657539 
1254	 9062.14637033755 
1255	 9081.93993871101 
1256	 9100.76483099506 
1257	 9121.83489904352 
1258	 9140.7739701763 
1259	 9158.17887230397 
1260	 9175.03675762509 
1261	 9191.19819265198 
1262	 9207.9940183937 
1263	 9222.58353027294 
1264	 9236.31230552651 
1265	 9251.63540064767 
1266	 9267.16055042184 
1267	 9281.54593407169 
1268	 9292.90173653728 
1269	 9303.07158144286 
1270	 9310.28645493069 
1271	 9314.63775523249 
1272	 9320.36233206016 
1273	 9321.98225676008 
1274	 9320.5853948516 
1275	 9320.54140972506 
1276	 9315.92422754421 
1277	 9308.57611531541 
1278	 9299.36819001327 
1279	 9288.56094970674 
1280	 9274.39899805374 
1281	 9261.51080212579 
1282	 9248.06741136849 
1283	 9233.98433777271 
1284	 9218.18211446841 
1285	 9203.02964659819 
1286	 9188.91777008836 
1287	 9172.93560181937 
1288	 9156.21671377059 
1289	 9139.84354988022 
1290	 9121.61904913462 
1291	 9104.26809968013 
1292	 9090.06639004137 
1293	 9077.26081130536 
1294	 9065.75995325094 
1295	 9055.09471622039 
1296	 9046.73260593158 
1297	 9038.23958547762 
1298	 9030.2310112508 
1299	 9026.26050408707 
1300	 9021.38409218383 
1301	 9019.33903610994 
1302	 9021.82089252432 
1303	 9022.84801566873 
1304	 9024.86728921445 
1305	 9028.09784378408 
1306	 9030.01299425628 
1307	 9031.32663779121 
1308	 9033.77212507585 
1309	 9034.5252528324 
1310	 9035.75280687882 
1311	 9042.84505420928 
1312	 9049.52306535144 
1313	 9059.08578060531 
1314	 9067.21503107684 
1315	 9075.62586849046 
1316	 9081.07066038808 
1317	 9084.29707830872 
1318	 9090.64995978055 
1319	 9096.72872161704 
1320	 9102.68988967762 
1321	 9115.24904224561 
1322	 9128.07545614489 
1323	 9137.18306164065 
1324	 9149.4614422851 
1325	 9161.17235869575 
1326	 9167.12308111962 
1327	 9176.96506255578 
1328	 9187.28903007787 
1329	 9190.57786168312 
1330	 9190.81551294608 
1331	 9185.58742430613 
1332	 9171.1180102692 
1333	 9155.11526322205 
1334	 9131.33967169666 
1335	 9094.63827501014 
1336	 9052.77479837499 
1337	 8994.67926892516 
1338	 8923.46308843506 
1339	 8843.78567615384 
1340	 8752.77275969591 
1341	 8653.53972662162 
1342	 8552.40766362323 
1343	 8450.85848822896 
1344	 8349.34495887 
1345	 8251.90726396987 
1346	 8158.86931904318 
1347	 8076.07538068265 
1348	 7998.04933001173 
1349	 7933.40054891313 
1350	 7881.93795105888 
1351	 7835.53992030469 
1352	 7803.4949953377 
1353	 7767.90351531605 
1354	 7736.0593196818 
1355	 7705.33900430179 
1356	 7674.49887523505 
1357	 7637.16405775458 
1358	 7595.41332955132 
1359	 7551.06673578513 
1360	 7494.48300516888 
1361	 7435.71356044766 
1362	 7377.80574739505 
1363	 7322.44426605229 
1364	 7273.89077977469 
1365	 7231.69060305733 
1366	 7199.59273313018 
1367	 7173.70648684928 
1368	 7157.284689869 
1369	 7154.1588022206 
1370	 7162.78527255854 
1371	 7176.48678212043 
1372	 7195.54483541505 
1373	 7211.44263380889 
1374	 7218.7598636643 
1375	 7221.21693019785 
1376	 7216.04043350602 
1377	 7209.05770009926 
1378	 7193.37300579133 
1379	 7174.47791028094 
1380	 7156.00404380352 
1381	 7137.37646763154 
1382	 7127.30316339523 
1383	 7124.2160734838 
1384	 7132.25714843835 
1385	 7148.02058530101 
1386	 7171.35576683716 
1387	 7203.1275540782 
1388	 7239.09314482143 
1389	 7280.92134587604 
1390	 7324.2678223689 
1391	 7372.99316518865 
1392	 7419.43041188297 
1393	 7468.80365023592 
1394	 7512.21589885346 
1395	 7553.69978069641 
1396	 7592.87837017212 
1397	 7625.32662061647 
1398	 7657.9072300033 
1399	 7687.89669831162 
1400	 7715.11089071134 
1401	 7745.15625928043 
1402	 7774.36835346732 
1403	 7806.08785463528 
1404	 7841.94132135379 
1405	 7877.18813724287 
1406	 7912.55007044798 
1407	 7949.95427671063 
1408	 7990.99006889508 
1409	 8037.53391711661 
1410	 8088.27981225956 
1411	 8143.1820642247 
1412	 8198.59922621428 
1413	 8253.1131013329 
1414	 8308.82414568612 
1415	 8366.16284864569 
1416	 8426.54333619957 
1417	 8487.7574149515 
1418	 8546.43031162023 
1419	 8601.50782068123 
1420	 8653.91380180336 
1421	 8703.89118077078 
1422	 8753.19842175274 
1423	 8801.8506075862 
1424	 8847.33776967378 
1425	 8891.90080228584 
1426	 8931.90424294429 
1427	 8966.08167131975 
1428	 8995.60594597524 
1429	 9016.980666472 
1430	 9033.03597314313 
1431	 9041.47605482268 
1432	 9041.54619425985 
1433	 9034.65143785362 
1434	 9022.64519089765 
1435	 9009.38745374047 
1436	 8994.26853608413 
1437	 8977.73608224124 
1438	 8960.2644838466 
1439	 8940.70748819291 
1440	 8924.6229928825 
1441	 8912.25653603548 
1442	 8902.06647865674 
1443	 8899.65352049742 
1444	 8900.69921426227 
1445	 8905.38564276287 
1446	 8916.1229083449 
1447	 8927.41958868074 
1448	 8940.49848223011 
1449	 8956.26600544348 
1450	 8973.9644466082 
1451	 8993.75973131191 
1452	 9015.99594699128 
1453	 9042.90029758234 
1454	 9067.02928986045 
1455	 9089.07793446832 
1456	 9110.01984642387 
1457	 9127.66168833379 
1458	 9146.25222693595 
1459	 9165.66705061942 
1460	 9184.72740125802 
1461	 9204.34926210498 
1462	 9225.95941222848 
1463	 9250.20030943277 
1464	 9274.82216322043 
1465	 9300.76583165706 
1466	 9326.39254282735 
1467	 9351.34623061545 
1468	 9379.27966420136 
1469	 9407.31621708594 
1470	 9434.99568443869 
1471	 9464.32647757303 
1472	 9493.14615742592 
1473	 9520.75786597699 
1474	 9545.82176319883 
1475	 9567.34823627772 
1476	 9585.59986454687 
1477	 9605.58840563226 
1478	 9626.55397542825 
1479	 9644.69073466529 
1480	 9666.36221563076 
1481	 9688.73452373692 
1482	 9708.13239048603 
1483	 9729.65543236164 
1484	 9749.19595729055 
1485	 9762.94651108016 
1486	 9778.89803020213 
1487	 9794.9743447544 
1488	 9809.3417374397 
1489	 9825.83004688318 
1490	 9839.24279249679 
1491	 9854.43663022214 
1492	 9870.2135490503 
1493	 9883.83116808726 
1494	 9898.36784484415 
1495	 9909.904835059 
1496	 9921.38540189481 
1497	 9933.26033940474 
1498	 9945.85657723318 
1499	 9958.66453532779 
1500	 9970.14507029536 
1501	 9980.62942378253 
1502	 9989.76181706945 
1503	 10000.6115077473 
1504	 10009.4461088207 
1505	 10015.3176653656 
1506	 10019.2446581876 
1507	 10020.0311053614 
1508	 10020.2009317991 
1509	 10019.6154443925 
1510	 10019.1261061049 
1511	 10014.4866072638 
1512	 10007.6334521951 
1513	 10000.7728397641 
1514	 9987.43741648267 
1515	 9974.760371449 
1516	 9960.78819137234 
1517	 9943.50835246311 
1518	 9931.79731668519 
1519	 9918.22947951905 
1520	 9902.97131135257 
1521	 9890.20619285642 
1522	 9871.37632073628 
1523	 9855.74141077678 
1524	 9845.59131446666 
1525	 9828.360567286 
1526	 9813.67800787891 
1527	 9800.86553491622 
1528	 9780.49529766187 
1529	 9763.82824301105 
1530	 9750.38059339855 
1531	 9734.37838788349 
1532	 9721.17217872334 
1533	 9707.25084528382 
1534	 9689.27552737452 
1535	 9671.81044706822 
1536	 9654.68403370173 
1537	 9636.42375285558 
1538	 9620.42491081819 
1539	 9604.59966509803 
1540	 9586.70371614279 
1541	 9568.90985836322 
1542	 9552.07717204344 
1543	 9535.97894460458 
1544	 9522.79020392541 
1545	 9513.79543472893 
1546	 9503.98466566254 
1547	 9493.11365136036 
1548	 9484.29928006132 
1549	 9473.54236695324 
1550	 9462.78674773026 
1551	 9455.55937936242 
1552	 9446.30809120106 
1553	 9435.74312733434 
1554	 9428.49948778831 
1555	 9422.25937073734 
1556	 9413.55642170963 
1557	 9404.07095801923 
1558	 9394.62599310253 
1559	 9380.7552548236 
1560	 9364.82830871642 
1561	 9351.00187091205 
1562	 9334.11591542183 
1563	 9318.885796445 
1564	 9305.965879469 
1565	 9288.26445765865 
1566	 9269.39787364888 
1567	 9247.71210016197 
1568	 9223.72235328457 
1569	 9202.31010251595 
1570	 9179.45379499209 
1571	 9156.6841830455 
1572	 9133.89960367406 
1573	 9108.2877989935 
1574	 9085.03075560405 
1575	 9060.62700777854 
1576	 9034.51733753545 
1577	 9010.92451025343 
1578	 8985.99306177405 
1579	 8960.26787040049 
1580	 8932.6734581965 
1581	 8899.32680016677 
1582	 8864.67284788553 
1583	 8829.55480649528 
1584	 8793.10240476753 
1585	 8757.65706073887 
1586	 8721.56846720564 
1587	 8681.44536918293 
1588	 8639.35607948667 
1589	 8597.14224336446 
1590	 8552.84511097529 
1591	 8508.17559752117 
1592	 8461.16849403592 
1593	 8411.887820158 
1594	 8361.52567123822 
1595	 8307.59907924768 
1596	 8252.01767866011 
1597	 8195.02738961838 
1598	 8132.90652334013 
1599	 8067.79331490161 
1600	 8003.2885415571 
1601	 7937.74776067895 
1602	 7872.82214915709 
1603	 7808.9655259593 
1604	 7742.11884483356 
1605	 7672.91956539042 
1606	 7603.26844534928 
1607	 7536.86104040295 
1608	 7474.95301345477 
1609	 7416.54750117309 
1610	 7360.76607295601 
1611	 7307.18836974615 
1612	 7258.58614189706 
1613	 7216.87803197835 
1614	 7183.22168242265 
1615	 7151.60961044527 
1616	 7123.78459747131 
1617	 7096.99529977375 
1618	 7067.94948160555 
1619	 7045.71406289904 
1620	 7022.5204895832 
1621	 6998.25438274959 
1622	 6980.33658362201 
1623	 6959.8929217313 
1624	 6939.11802120293 
1625	 6918.46828216775 
1626	 6895.02627284545 
1627	 6869.4204817566 
1628	 6839.1667914068 
1629	 6808.39508996493 
1630	 6776.16197332878 
1631	 6741.39927218383 
1632	 6706.97729215048 
1633	 6669.73968928649 
1634	 6627.30182687707 
1635	 6581.97074075411 
1636	 6531.65551724216 
1637	 6482.12446466479 
1638	 6431.54612566973 
1639	 6378.64543039147 
1640	 6327.68828845061 
1641	 6269.37614089601 
1642	 6207.69793539224 
1643	 6139.47021398818 
1644	 6066.32595088525 
1645	 5986.17734014956 
1646	 5900.06410852219 
1647	 5806.90671608622 
1648	 5709.69184265046 
1649	 5599.74694520042 
1650	 5482.93849536832 
1651	 5352.66358176161 
1652	 5209.7162978212 
1653	 5055.49386029814 
1654	 4891.48942267293 
1655	 4713.80871732686 
1656	 4523.30536748935 
1657	 4321.49208409242 
1658	 4104.06903181026 
1659	 3881.52035802347 
1660	 3641.22300788132 
1661	 3411.44341600412 
1662	 3174.62993408134 
1663	 2952.44937900577 
1664	 2735.56161973141 
1665	 2531.95721092181 
1666	 2333.14038296181 
1667	 2156.91981754418 
1668	 1991.84858179654 
1669	 1852.87847833563 
1670	 1738.40961907148 
1671	 1634.546555055 
1672	 1550.82938183934 
1673	 1477.02356972655 
1674	 1418.26475314466 
1675	 1364.3435089539 
1676	 1324.30010717355 
1677	 1285.06444597702 
1678	 1248.85444932294 
1679	 1223.12887380321 
1680	 1204.47871712728 
1681	 1195.49490047292 
1682	 1193.15964591581 
1683	 1205.90275821859 
1684	 1231.45998990932 
1685	 1277.34528291524 
1686	 1332.10002170077 
1687	 1403.37417010271 
1688	 1473.52350864942 
1689	 1555.6008032888 
1690	 1627.96209665575 
1691	 1704.586661505 
1692	 1764.6352920487 
1693	 1817.46626150855 
1694	 1852.99763624432 
1695	 1873.14648735578 
1696	 1879.86134040251 
1697	 1869.73509769054 
1698	 1849.58858441739 
1699	 1815.14073473972 
1700	 1772.80006573068 
1701	 1717.15215881312 
1702	 1658.03723670131 
1703	 1589.31820478761 
1704	 1519.13303383583 
1705	 1440.46617519604 
1706	 1367.41398273086 
1707	 1292.47911779473 
1708	 1221.62792822562 
1709	 1154.50013730304 
1710	 1089.042737244 
1711	 1021.91604987966 
1712	 964.972908679808 
1713	 912.63700708744 
1714	 867.651111433606 
1715	 831.418789408666 
1716	 798.096237167738 
1717	 768.657398700003 
1718	 747.3106024673 
1719	 730.698258945797 
1720	 723.857213959884 
1721	 725.980824772344 
1722	 732.67121864486 
1723	 747.391975984919 
1724	 764.87428732211 
1725	 786.962916652836 
1726	 815.416238268983 
1727	 846.66435447029 
1728	 886.086455358905 
1729	 930.836156122382 
1730	 979.275199445163 
1731	 1035.97255643785 
1732	 1092.62569164468 
1733	 1149.71526712303 
1734	 1210.63739435337 
1735	 1267.49795584418 
1736	 1325.58986661709 
1737	 1379.26905429817 
1738	 1431.27713688428 
1739	 1475.85514810788 
1740	 1516.78300976845 
1741	 1550.21489172289 
1742	 1575.26530899687 
1743	 1597.03893744726 
1744	 1613.11278946012 
1745	 1625.8130329866 
1746	 1632.01823183475 
1747	 1639.62845523015 
1748	 1642.42479212887 
1749	 1650.60467607884 
1750	 1660.79139876234 
1751	 1671.62935015592 
1752	 1682.51002540912 
1753	 1701.07688440873 
1754	 1720.79220435597 
1755	 1750.39086000924 
1756	 1050.19004084716 
1757	 1094.21249235525 
1758	 1149.43767657424 
1759	 1198.12436824434 
1760	 1236.51655403508 
1761	 1278.92139090305 
1762	 1343.77120598507 
1763	 1387.58555898374 
1764	 1433.64040194867 
1765	 1480.40608400774 
1766	 1527.96721166475 
1767	 1572.32737809968 
1768	 1615.13093623591 
1769	 1664.59512694833 
1770	 1705.3830643731 
1771	 1728.42477505462 
1772	 1744.08551803527 
1773	 1771.30003892161 
1774	 1792.0315517414 
1775	 1824.76901084644 
1776	 1883.73629842812 
1777	 1916.03449286157 
1778	 1937.97420679959 
1779	 1963.13824535384 
1780	 1975.32986732732 
1781	 1988.54365616596 
1782	 2024.9118435462 
1783	 2047.33822297305 
1784	 2063.81742648594 
1785	 2079.21727247229 
1786	 2083.14076536331 
1787	 2067.53771984684 
1788	 2073.14695015477 
1789	 2087.32550681896 
1790	 2095.92269112058 
1791	 2107.64494368086 
1792	 2109.81709166442 
1793	 2103.0286594487 
1794	 2099.42431653348 
1795	 2092.00351544192 
1796	 2095.2034249759 
1797	 2106.30767342428 
1798	 2109.5378614699 
1799	 2116.14365299056 
1800	 2117.04985211564 
1801	 2100.82892527651 
1802	 2094.83236357686 
1803	 2089.724314545 
1804	 2079.13926708983 
1805	 2079.98026956149 
1806	 2091.54358739667 
1807	 2100.38971472089 
1808	 2107.16730579704 
1809	 2120.04894584265 
1810	 2145.47064994177 
1811	 2165.32238787189 
1812	 2181.87420845168 
1813	 2199.95943479435 
1814	 2220.50200286728 
1815	 2238.14340304158 
1816	 2254.44710087015 
1817	 2272.19616902044 
1818	 2296.98948367853 
1819	 2305.56784006356 
1820	 2304.41324621091 
1821	 2329.25148695636 
1822	 2366.6850859945 
1823	 2400.60905968796 
1824	 2456.33342261357 
1825	 2495.85790170864 
1826	 2521.26461739951 
1827	 2554.4877805093 
1828	 2590.91540925704 
1829	 2621.7746436862 
1830	 2657.9394250923 
1831	 2696.75854297162 
1832	 2736.27179907969 
1833	 2777.18732830622 
1834	 2818.74086230685 
1835	 2868.90684182141 
1836	 2907.14832194356 
1837	 2938.72942590693 
1838	 2971.55271276149 
1839	 2997.62612116328 
1840	 3023.82958653062 
1841	 3051.42116864003 
1842	 3086.28746757869 
1843	 3106.85694066193 
1844	 3118.56133520374 
1845	 3134.74410705631 
1846	 3138.85634255992 
1847	 3155.96716233253 
1848	 3182.61206044923 
1849	 3207.5009307851 
1850	 3241.15178282472 
1851	 3267.67363748285 
1852	 3292.50133448169 
1853	 3311.73097273034 
1854	 3339.57724463023 
1855	 3375.27871020267 
1856	 3401.92831931644 
1857	 3434.40193086086 
1858	 3455.34827678066 
1859	 3460.26913457757 
1860	 3455.44698854284 
1861	 3458.63340204744 
1862	 3461.8876023825 
1863	 3460.57021633593 
1864	 3458.61780342637 
1865	 3453.98468883045 
1866	 3440.27417128956 
1867	 3432.66594542501 
1868	 3423.90128249003 
1869	 3428.9514362055 
1870	 3424.59176654252 
1871	 3424.97532393461 
1872	 3429.54833315679 
1873	 3433.28070976252 
1874	 3450.08154645759 
1875	 3459.15628010279 
1876	 3455.98239685772 
1877	 3446.46694729981 
1878	 3430.07916028829 
1879	 3402.45225282953 
1880	 3360.98769502699 
1881	 3311.52872806689 
1882	 3267.14960268401 
1883	 3210.86837945812 
1884	 3149.37107051958 
1885	 3094.11275486825 
1886	 3011.2305053293 
1887	 2926.91337499613 
1888	 2830.80812746461 
1889	 2737.81034269665 
1890	 2640.77879687387 
1891	 2550.01101112028 
1892	 2468.67626372959 
1893	 2397.94045551073 
1894	 2323.07566723212 
1895	 2266.42654509789 
1896	 2223.09660185192 
1897	 2183.82794702612 
1898	 2151.11404701999 
1899	 2128.75400845109 
1900	 2118.57512463768 
1901	 2107.6960669687 
1902	 2100.72268508764 
1903	 2103.74314180781 
1904	 2103.60083896894 
1905	 2106.2309106114 
1906	 2110.53068040388 
1907	 2120.89863660616 
1908	 2143.36542864987 
1909	 2181.35962517116 
1910	 2211.44997043577 
1911	 2251.70087376531 
1912	 2284.95945067437 
1913	 2311.45914596078 
1914	 2333.89868225091 
1915	 2376.06519625162 
1916	 2424.42098656228 
1917	 2466.33243645306 
1918	 2519.10192896413 
1919	 2565.05064393091 
1920	 2601.50593754244 
1921	 2644.07016698797 
1922	 2694.90853560793 
1923	 2736.54024053156 
1924	 2773.23084523329 
1925	 2811.11056843146 
1926	 2845.99368754603 
1927	 2879.71143952577 
1928	 2914.35734559431 
1929	 2954.04147179102 
1930	 2988.0295755232 
1931	 3022.05480834678 
1932	 3048.79063779695 
1933	 3067.786662466 
1934	 3090.83638257782 
1935	 3107.69687467807 
1936	 3132.47949572346 
1937	 3175.11469104649 
1938	 3197.6589290465 
1939	 3214.23712993521 
1940	 3222.97649062526 
1941	 3230.72058891034 
1942	 3221.80854898536 
1943	 3226.58188261882 
1944	 3237.64263853804 
1945	 3245.93773028078 
1946	 3250.5392625243 
1947	 3263.50830212641 
1948	 3289.07522614709 
1949	 3301.65948497659 
1950	 3314.82836221146 
1951	 3322.93510951633 
1952	 3318.58760965075 
1953	 3311.97972206292 
1954	 3316.99432362107 
1955	 3325.54307246419 
1956	 3338.25980761949 
1957	 3357.99782733804 
1958	 3377.97672243432 
1959	 3409.99957552299 
1960	 3425.04440531334 
1961	 3436.19165571719 
1962	 3443.57388585026 
1963	 3434.75031572419 
1964	 3432.74102499312 
1965	 3439.06535925084 
1966	 3435.90106198765 
1967	 3430.48603668147 
1968	 3421.73216742115 
1969	 3413.01755328908 
1970	 3398.70823157345 
1971	 3387.23872741029 
1972	 3375.31824887508 
1973	 3367.33779141403 
1974	 3362.37859948044 
1975	 3354.51423280658 
1976	 3353.76018095173 
1977	 3342.85863074926 
1978	 3321.83076577812 
1979	 3302.72091834345 
1980	 3285.28168219412 
1981	 3269.09213742158 
1982	 3243.53853553326 
1983	 3212.87570615742 
1984	 3188.43515735785 
1985	 3157.07807605771 
1986	 3131.11328331332 
1987	 3114.57487491736 
1988	 3096.32831325482 
1989	 3075.34109354617 
1990	 3055.154887882 
1991	 3044.0363899804 
1992	 3022.86978807498 
1993	 2993.52538443671 
1994	 2965.59757053075 
1995	 2938.04274051154 
1996	 2906.2436155406 
1997	 2879.86770342135 
1998	 2851.39021861407 
1999	 2837.2231033726 
2000	 2838.6081111508 
2001	 2822.31491910907 
2002	 2810.67345371806 
2003	 2791.88575364079 
2004	 2756.02970026632 
2005	 2726.13913830646 
2006	 2700.55752911517 
2007	 2678.22418246517 
2008	 2650.38202281951 
2009	 2623.30791478977 
2010	 2603.59842714439 
2011	 2583.42563204503 
2012	 2575.66969330597 
2013	 2587.39350753678 
2014	 2579.18694685804 
2015	 2569.04961968159 
2016	 2558.50380327565 
2017	 2537.6906697203 
2018	 2521.37088055641 
2019	 2508.87972431885 
2020	 2499.83332507762 
2021	 2483.69330484485 
2022	 2450.24333976787 
2023	 2432.59905170196 
2024	 2418.63831309192 
2025	 2405.15627094622 
2026	 2403.12330410632 
2027	 2390.10314541473 
2028	 2366.40489595449 
2029	 2352.27552360202 
2030	 2336.89253522286 
2031	 2324.65926963596 
2032	 2318.32666442541 
2033	 2315.8045224866 
2034	 2301.77438052102 
2035	 2297.09916313582 
2036	 2287.47613432826 
2037	 2276.87653095638 
2038	 2265.33491190751 
2039	 2249.33824733861 
2040	 2237.70858821519 
2041	 2226.86974519885 
2042	 2224.74481372875 
2043	 2237.95781923939 
2044	 2236.24071726691 
2045	 2239.00313224326 
2046	 2228.27843984557 
2047	 2202.97095209068 
2048	 2180.39034297547 
2049	 2150.87480077193 
2050	 2125.17120274453 
2051	 2095.883328177 
2052	 2063.1597082212 
2053	 2041.24312088139 
2054	 2016.2263080579 
2055	 1999.05903677125 
2056	 1997.64806418958 
2057	 1979.85014443113 
2058	 1966.52122579486 
2059	 1954.25394630888 
2060	 1936.20364713858 
2061	 1922.42999058962 
2062	 1919.88982575103 
2063	 1903.96070765082 
2064	 1883.2654018526 
2065	 1863.75213140316 
2066	 1830.70461623304 
2067	 1801.44926299556 
2068	 1768.71239742664 
2069	 1735.13085208068 
2070	 1703.00646866952 
2071	 1660.88275728345 
2072	 1624.83428781222 
2073	 1596.34079747067 
2074	 1572.33252902221 
2075	 1559.27618478029 
2076	 1529.40816480523 
2077	 1497.25386459162 
2078	 1450.17451314517 
2079	 1382.0168845386 
2080	 1318.08232699899 
2081	 1246.93736875616 
2082	 1177.84850422208 
2083	 1119.01795306108 
2084	 1068.51562648357 
2085	 1022.73313813023 
2086	 989.499012277713 
2087	 949.27583266429 
2088	 911.949646090262 
2089	 880.014778399781 
2090	 842.73905213271 
2091	 812.180473870946 
2092	 791.995849323131 
2093	 763.791353945493 
2094	 730.843628989855 
2095	 700.839626073942 
2096	 661.563751467569 
2097	 630.708119510129 
2098	 601.423255949824 
2099	 588.689353020639 
2100	 577.628198608716 
2101	 576.351331938418 
2102	 568.380582071862 
2103	 553.427525582463 
2104	 538.933229591428 
2105	 521.863758260757 
2106	 514.020841088047 
2107	 508.700686754683 
2108	 499.68576211482 
2109	 483.873325784981 
2110	 463.502612815764 
2111	 447.69313395096 
2112	 439.419897588887 
2113	 437.926957352734 
2114	 439.244376235748 
2115	 452.652596931237 
2116	 459.237269920774 
2117	 466.973386397085 
2118	 471.902749058878 
2119	 474.130305892105 
2120	 474.313524552989 
2121	 481.497188737455 
2122	 483.47459279541 
2123	 490.912731528661 
2124	 506.522615358922 
2125	 524.385978694624 
2126	 539.417566004578 
2127	 563.162018135262 
2128	 582.077949012672 
2129	 593.33113940085 
2130	 608.300161487131 
2131	 622.3295303795 
2132	 648.045042879805 
2133	 670.506841753295 
2134	 691.175615865794 
2135	 706.732294668909 
2136	 712.325275815076 
2137	 719.233377153046 
2138	 724.240236273549 
2139	 731.794845409141 
2140	 740.354552736851 
2141	 747.476707170222 
2142	 753.149924949657 
2143	 764.476286543879 
2144	 772.71264220681 
2145	 768.895561057687 
2146	 768.953738946625 
2147	 759.399341097988 
2148	 741.179677179951 
2149	 742.522844342303 
2150	 751.093099065941 
2151	 759.370835152416 
2152	 778.264863114622 
2153	 796.540551768126 
2154	 800.795379223367 
2155	 800.53983805502 
2156	 810.488866596832 
2157	 814.186885042449 
2158	 813.925321496527 
2159	 817.298913762135 
2160	 819.824715398628 
2161	 806.940858776311 
2162	 811.304613491749 
2163	 827.298281406634 
2164	 845.253690051092 
2165	 858.93234137337 
2166	 861.429679918277 
2167	 850.694189244707 
2168	 836.174826018567 
2169	 828.378774284203 
2170	 823.819747920643 
2171	 828.07377928265 
2172	 830.387200859248 
2173	 824.348222798807 
2174	 820.414576632102 
2175	 818.715822612743 
2176	 820.409797822123 
2177	 818.350063655544 
2178	 821.511778545891 
2179	 824.821978050312 
2180	 828.891307071161 
2181	 838.979761323836 
2182	 844.160105595764 
2183	 846.641373754614 
2184	 845.082754684905 
2185	 841.767335491408 
2186	 832.834181672193 
2187	 829.62119309286 
2188	 826.792693319909 
2189	 828.653533409246 
2190	 830.16314284094 
2191	 830.352116647089 
2192	 821.351231813357 
2193	 804.070160036659 
2194	 779.746422564338 
2195	 761.229890819381 
2196	 754.844472058834 
2197	 750.256813244735 
2198	 754.985905391652 
2199	 752.622727751419 
2200	 741.331188679141 
2201	 722.841244558627 
2202	 687.856926161653 
2203	 658.938426497768 
2204	 636.271660536484 
2205	 617.002104683193 
2206	 611.844296962006 
2207	 608.689860534772 
2208	 597.333165727189 
2209	 590.708209457194 
2210	 585.742510844 
2211	 583.581974205173 
2212	 579.461371146924 
2213	 580.577779097506 
2214	 568.406686279266 
2215	 551.3414914561 
2216	 527.781336165701 
2217	 494.960068355313 
2218	 467.273487905818 
2219	 434.559183995522 
2220	 403.874430475856 
2221	 390.443879112495 
2222	 357.666742785087 
2223	 331.985969415222 
2224	 308.978093065899 
2225	 274.848842968253 
2226	 254.252587397208 
2227	 227.298160904551 
2228	 208.567413911973 
2229	 188.670118641279 
2230	 155.960238363876 
2231	 130.460216916511 
2232	 102.500752246271 
2233	 91.6735716522032 
2234	 84.8402020777401 
2235	 82.4823055167071 
2236	 88.4958444222074 
2237	 78.048619052044 
2238	 69.3505517340627 
2239	 59.6551256111705 
2240	 48.3440006870009 
2241	 44.5241550929217 
2242	 41.4865532346147 
2243	 39.5071434140023 
2244	 44.903922327325 
2245	 41.152850462246 
2246	 29.1349810888325 
2247	 25.4488391902026 
2248	 21.2390398077293 
2249	 21.0266308788624 
2250	 26.6740653910327 
2251	 30.9884601222315 
2252	 36.3446785733954 
2253	 41.3191948402526 
2254	 52.3225549296254 
2255	 54.9379940219075 
2256	 59.033295111748 
2257	 45.5650454655205 
2258	 21.6104903736721 
2259	 14.6342541472948 
2260	 1.60218658667459 
2261	 2.04555231244021E-02 
2262	 14.4150760456889 
2263	 10.2959847007891 
2264	-0.52307021534143 
2265	-7.94719106758281 
2266	-16.8946735724476 
2267	-21.003745485873 
2268	-11.5964592928293 
2269	-4.57883925854566 
2270	 3.84812006750836 
2271	 15.6053623213657 
2272	 30.1316833387579 
2273	 51.6940076640263 
2274	 58.5276655911048 
2275	 61.5815508093398 
2276	 55.7950773923908 
2277	 35.8948896865922 
2278	 23.7599947395311 
2279	 9.26407106784571 
2280	-0.531723794019126 
2281	-0.630147516720462 
2282	-0.978600659444366 
2283	 1.54291077132519 
2284	 6.80972442904358 
2285	 2.9986420648903 
2286	-0.132137271985975 
2287	-6.47036120273616 
2288	-5.39574213156585 
2289	-1.75744304962832 
2290	 4.02905166288543 
2291	 17.7577530305293 
2292	 20.0251218170995 
2293	 13.3771169225656 
2294	 11.4066078386304 
2295	 5.3506902088662 
2296	 9.44769601062385 
2297	 26.0389937186534 
2298	 32.0656104290057 
2299	 40.9128794639245 
2300	 38.154447806712 
2301	 17.5550262424018 
2302	 9.76574708686447 
2303	-3.67943592961854 
2304	-3.25901161274276 
2305	 17.1932595532612 
2306	 23.8157878013447 
2307	 37.1298274379275 
2308	 43.3444201423566 
2309	 37.7439860212608 
2310	 34.2230152809896 
2311	 33.0441686152227 
2312	 14.235450331956 
2313	 8.59105381213746 
2314	-2.23243208299224 
2315	-14.1770304655135 
2316	-11.8335046509421 
2317	-15.8074649081851 
2318	-10.6501951195306 
2319	 2.21197129960575 
2320	 9.21778651634287 
2321	 17.4703677516281 
2322	 18.2701095106705 
2323	 25.9242499204355 
2324	 32.6156334207007 
2325	 34.2837664278601 
2326	 46.7559832518614 
2327	 41.8231279248602 
2328	 28.9527139197848 
2329	 19.1718228481119 
2330	 1.6175380862743 
2331	-7.22390899831449 
2332	-10.3858560414086 
2333	-7.06540255309248 
2334	-0.629380054491333 
2335	-0.482156877162574 
2336	 12.333869226183 
2337	 16.5722399492802 
2338	 8.80368027171809 
2339	 15.6183422226014 
2340	 9.57708865563266 
2341	 3.93189667812167 
2342	 10.7152739081969 
2343	 6.59082986226789 
2344	 8.63809925986133 
2345	 22.7525505552584 
2346	 36.511185506012 
2347	 49.1719178817271 
2348	 64.3745692493951 
2349	 67.7073506694557 
2350	 58.0085433883954 
2351	 52.8887587505427 
2352	 43.0867066311575 
2353	 36.1149446066443 
2354	 36.1332211214381 
2355	 33.2400698523235 
2356	 31.1058568676197 
2357	 21.3136979700394 
2358	 14.5751240372189 
2359	 10.1431436367186 
2360	 7.95892225264094 
2361	 19.2939393056368 
2362	 24.4091181607406 
2363	 15.6046710455809 
2364	 2.0358588671226 
2365	-10.7091477515817 
2366	-30.0577387817537 
2367	-27.9855329569008 
2368	-11.2725971281435 
2369	-18.0972337754429 
2370	-7.27338326969231 
2371	 6.14426329955301 
2372	 1.24190292852106 
2373	 6.55903607610198 
2374	 4.82319301595171 
2375	-10.5073552604924 
2376	-15.8152332445115 
2377	-8.32679496812088 
2378	-5.71351386946617 
2379	 3.33120339952277 
2380	 7.01574262694963 
2381	-3.8396762154258 
2382	-4.6182296640119 
2383	-12.1791951704179 
2384	-16.4750378885837 
2385	-6.05844739367565 
2386	-6.42187071732699 
2387	 3.68427997542242 
2388	 19.8025663147768 
2389	 17.9337641790576 
2390	 19.9786348041936 
2391	 15.6931910235978 
2392	 0.599023763531012 
2393	-2.17749927753166 
2394	 4.54160445348232 
2395	 7.05480370387131 
2396	 8.32400344404821 
2397	 12.7189101420759 
2398	 0.101719731541725 
2399	-9.45735097403563 
2400	-8.64841703338551 
2401	-21.0515669628447 
2402	-28.9106418580681 
2403	-26.4826658658503 
2404	-24.1169332718339 
2405	-18.3044717190297 
2406	-1.60241363813305 
2407	 3.13949656587646 
2408	-5.34628867941368 
2409	-7.5080346506465 
2410	-10.1188537480155 
2411	-4.54687882865573 
2412	 1.59201069229261 
2413	 2.04876477962408 
2414	 0.299545066603974 
2415	-2.79271230600512 
2416	 4.10170471572926 
2417	 12.9853936338967 
2418	 18.9203139539529 
2419	 24.168853486635 
2420	 26.0933408061503 
2421	 27.1748404713146 
2422	 37.4374040916082 
2423	 40.6666283600429 
2424	 31.6106802265617 
2425	 23.6765511278394 
2426	 14.4338106370035 
2427	 15.6514704484284 
2428	 20.0240578300355 
2429	 30.9736560841158 
2430	 36.0979718525086 
2431	 26.657326363829 
2432	 26.4009690345387 
2433	 20.1261900140324 
2434	 11.2270153622915 
2435	 8.14954917937342 
2436	-1.50436283038515 
2437	-8.96568181179087 
2438	-1.8968069214418 
2439	 3.89327823189139 
2440	 13.350681624761 
2441	 25.3292964653217 
2442	 20.4192854400047 
2443	 15.5195031414313 
2444	 9.84356352111038 
2445	 3.73332419744266 
2446	-5.82740088565736 
2447	-20.933313712426 
2448	-36.6184843872558 
2449	-47.8408715605324 
2450	-40.5774283473009 
2451	-30.9744850144819 
2452	-20.1862254128919 
2453	-16.278560656547 
2454	-25.8774267189777 
2455	-26.3268972721292 
2456	-23.5194320922699 
2457	-17.0103011940963 
2458	-1.81132391498311 
2459	 3.76219727855789 
2460	 5.63888922725301 
2461	 6.32325293031491 
2462	 1.07088450833051 
2463	-2.24129143244361 
2464	-2.77864148664378 
2465	 1.0888291295904 
2466	-4.05798989594024 
2467	-12.483987704684 
2468	-22.5249082485502 
2469	-30.2783602767268 
2470	-14.5156725184334 
2471	-4.26282561840761 
2472	-0.393584148220337 
2473	 9.91897494844983 
2474	 0.196304543316796 
2475	-13.3944881966072 
2476	-5.94194163087897 
2477	 1.60429542839377 
2478	 6.83151536326278 
2479	 21.4147467628342 
2480	 18.1885725914172 
2481	 15.6800630311902 
2482	 18.7491956744512 
2483	 3.38720237554004 
2484	 6.12241613653363 
2485	 1.98167312632052 
2486	-5.18529809787758 
2487	 14.4098753970607 
2488	 15.4454220867983 
2489	 17.9944687301744 
2490	 24.8547843421601 
2491	 15.781613081478 
2492	 20.3448929175108 
2493	 27.7365626899805 
2494	 31.5839499447308 
2495	 32.4852273283384 
2496	 29.0393414121765 
2497	 19.0802207878455 
2498	 8.7802711362199 
2499	 9.29808629771843 
2500	 2.7556482946247 
