Wavelength	4mm_BluePLA00000.asd
350	 1.02312227985828 
351	 2.13037444581129 
352	 2.61984176589963 
353	 1.25107048565619 
354	-1.23463756366894E-02 
355	 7.89003330220949E-02 
356	 1.59434056933071 
357	 1.78560093725212 
358	 1.05327997963003 
359	 0.489962791288368 
360	 1.75139296467276 
361	 2.26836309705751 
362	 1.8585451931534 
363	 1.05586630708729 
364	 0.728230649121883 
365	 0.395108112882343 
366	 2.77301407771437E-02 
367	 0.197343387419568 
368	 1.45422965706899 
369	 2.1710893751079 
370	 0.758491966010891 
371	 1.34744069633386 
372	 1.02445543784297 
373	-1.04823989923586 
374	-0.588158805942247 
375	 0.388215957811746 
376	 0.967892022239684 
377	 0.77586462099354 
378	 1.9536534426855 
379	 2.01108635347166 
380	-0.119231303179674 
381	 0.808539980904776 
382	 1.00260264880748 
383	-8.41573902178246E-02 
384	-0.26164556160008 
385	 1.02754202257324 
386	 2.23141331783205 
387	 1.80644460091805 
388	 1.13897493644609 
389	 1.53856676542196 
390	 2.62975636823901 
391	 1.33175882391455 
392	 1.11194973269386 
393	 2.08193680834414 
394	 2.9171583084381 
395	 2.34363663131604 
396	 2.19791902043668 
397	 3.15166383073588 
398	 1.59396131658492 
399	 1.27717105464798 
400	 2.33556750219619 
401	 2.25125148515887 
402	 3.9047178728582 
403	 5.15091448231574 
404	 4.01798549978463 
405	 4.93885779347681 
406	 5.77624232510294 
407	 5.64431490834658 
408	 5.8740964498682 
409	 6.31451269764771 
410	 7.24632232425251 
411	 8.91074878809206 
412	 9.73263166671098 
413	 11.0319947031933 
414	 13.5939697642921 
415	 15.8857982314265 
416	 16.4120911878397 
417	 16.221929003226 
418	 18.6970836418897 
419	 21.3866747782259 
420	 23.5810721838436 
421	 25.3505616883767 
422	 28.5204029609792 
423	 32.1517976232269 
424	 35.3804393496298 
425	 37.5602213100272 
426	 40.7250188966594 
427	 44.7855159174898 
428	 48.4691835266386 
429	 51.2751383609438 
430	 54.7539763810633 
431	 59.7275156287894 
432	 62.9240222580775 
433	 65.4468660619482 
434	 68.0824108819586 
435	 71.205586413309 
436	 74.0091988823652 
437	 75.9140639219349 
438	 76.7462661526939 
439	 79.1276760907226 
440	 81.371247445814 
441	 82.3444351832713 
442	 84.0170820162929 
443	 84.7657987225812 
444	 84.7772084920565 
445	 85.8550321441033 
446	 86.1783584340869 
447	 85.7136361109275 
448	 84.9839378853183 
449	 84.2970431225094 
450	 84.9037292139273 
451	 86.4803245473721 
452	 84.9421990347448 
453	 84.4758399904354 
454	 85.0636147807652 
455	 84.0223683641751 
456	 83.1571653495032 
457	 82.0551886090052 
458	 80.2387604649303 
459	 79.3132394966799 
460	 78.5068144946904 
461	 77.5023367190234 
462	 77.0138568373787 
463	 76.7000230871376 
464	 76.1213734280221 
465	 74.7670491354076 
466	 73.0198294685357 
467	 71.4527713621745 
468	 70.3476346096839 
469	 68.6197824318033 
470	 67.2050507519335 
471	 66.2536514621642 
472	 64.5507551424902 
473	 63.6676540749004 
474	 63.1917328014623 
475	 61.8848112513916 
476	 60.7009699942815 
477	 60.4586685432152 
478	 61.114861493247 
479	 59.6645629877976 
480	 57.8650637840894 
481	 56.5686776688883 
482	 55.273255114876 
483	 55.4601500723062 
484	 56.1230420131979 
485	 55.2596000115225 
486	 53.8199272910887 
487	 52.235714445745 
488	 50.6319592945935 
489	 48.0936726295978 
490	 46.5006652051425 
491	 46.2864327253098 
492	 46.1024638991086 
493	 45.3808075342713 
494	 43.9959103938894 
495	 42.2782162553806 
496	 42.2531057744953 
497	 42.5672222354107 
498	 41.6013542056134 
499	 38.3865473857508 
500	 36.0808749520653 
501	 35.5829795120028 
502	 35.0077616542839 
503	 34.3312036866361 
504	 33.0210468687121 
505	 30.6481055158371 
506	 29.3160612182719 
507	 28.8859425987383 
508	 28.9493181505003 
509	 30.0076451782807 
510	 28.8378931083675 
511	 25.6406776684298 
512	 25.2524971961215 
513	 25.4938575553389 
514	 25.224762875972 
515	 23.7248292728573 
516	 22.8582020476226 
517	 23.041101076454 
518	 23.8824581524185 
519	 23.1718960822032 
520	 22.0395132007831 
521	 21.2628183713982 
522	 21.1880604789204 
523	 20.7767197399146 
524	 20.0747290446179 
525	 19.5923247390483 
526	 18.6469962759013 
527	 17.6419784195151 
528	 17.0428281996809 
529	 16.8626939302144 
530	 16.2262588112779 
531	 15.0794763053524 
532	 14.778390975131 
533	 14.2403438579365 
534	 12.9452732322808 
535	 10.764437170813 
536	 10.9403785723255 
537	 11.1211227469931 
538	 9.0705105645075 
539	 8.82047467360036 
540	 8.38933869384168 
541	 6.99665722094565 
542	 6.37176286178636 
543	 6.67423564429982 
544	 7.43317823393895 
545	 7.61684906412077 
546	 6.22639292347746 
547	 4.92664353499001 
548	 5.34151639963556 
549	 5.02303378905672 
550	 4.32691002548198 
551	 3.62224845271629 
552	 2.63018695246299 
553	 3.94818740282178 
554	 5.91391160734405 
555	 3.55053289422353 
556	 2.87341273894011 
557	 3.90778048042628 
558	 4.9886694462196 
559	 5.31360328733558 
560	 5.11579609735042 
561	 4.83721187016012 
562	 5.1944011828489 
563	 5.3951674180397 
564	 4.74707391609458 
565	 2.49611980947637 
566	 1.7246311460769 
567	 3.01878152443521 
568	 5.52613168216437 
569	 4.88746147071908 
570	 2.86950147368564 
571	 1.73375452506585 
572	 3.03712443159236 
573	 2.95060062495919 
574	 1.14250293159604 
575	 1.51642146232706 
576	 1.3292277227941 
577	 0.531690280122814 
578	-1.00424722396565E-02 
579	-1.42093598191425 
580	-1.78540334614083 
581	 0.176594545594827 
582	 2.13902596324085 
583	 1.96187864748704 
584	-5.84891515794525E-02 
585	 0.288000780851483 
586	-0.643134340162428 
587	-1.75357995054405 
588	 0.153441180828438 
589	 0.537673029395357 
590	 0.314307649353036 
591	 1.01155575577739 
592	 1.35274615836391 
593	 1.09882065919999 
594	 0.553421035190851 
595	 1.16889574698843 
596	 0.833925030332473 
597	-0.214620062648254 
598	-0.167202518321672 
599	 0.834017577890204 
600	 1.1037794395025 
601	-0.62581153101798 
602	 2.55947724289173E-02 
603	 0.840647360402941 
604	 0.436106721600414 
605	 0.74871541233534 
606	 1.18402540068913 
607	 1.1954752124418 
608	 0.11124287100815 
609	 0.979467842090731 
610	 2.0226175731284 
611	 0.454030714159803 
612	 0.612916636285941 
613	 1.35641195153164 
614	 1.40374134953807 
615	 0.965851466623815 
616	 2.0517188070233 
617	 4.06316075004891 
618	 2.97266525090894 
619	 2.35848433562233 
620	 2.51699388829782 
621	 2.48181893136978 
622	 2.34586411490253 
623	 2.83109693224273 
624	 4.08515463970599 
625	 3.662971510242 
626	 2.55878462984054 
627	 1.72767981057894 
628	 2.18120935173592 
629	 2.13012646334977 
630	 1.79795451033298 
631	 2.43626648021207 
632	 2.70889498795681 
633	 2.35637711105363 
634	 1.61463895800957 
635	 1.85800668840681 
636	 2.27650319052356 
637	 2.37805765321019 
638	 2.53364158115989 
639	 2.77787198708127 
640	 3.24472075474518 
641	 4.12105371376028 
642	 3.90146877030632 
643	 2.98950071600023 
644	 2.34618076848674 
645	 2.32590388382963 
646	 2.68198714077154 
647	 3.10393089864201 
648	 3.33033491897528 
649	 3.35733082328043 
650	 3.16320776871585 
651	 2.67783769184288 
652	 3.47033523865239 
653	 4.49129754545087 
654	 4.05616161686918 
655	 4.53266511735146 
656	 5.43622365392586 
657	 6.19133203813442 
658	 7.18746403490431 
659	 8.31954582257447 
660	 9.74941901358682 
661	 12.0471743608096 
662	 14.3248197286847 
663	 16.830768669581 
664	 20.3771091006038 
665	 25.7925668121834 
666	 32.7988695483751 
667	 40.8673099472853 
668	 49.2383143695939 
669	 59.9785070402021 
670	 73.7859706441727 
671	 89.0263165426841 
672	 107.147340039306 
673	 127.927937365864 
674	 150.418734234322 
675	 177.258298838595 
676	 208.436189158855 
677	 243.4170169591 
678	 282.183659927253 
679	 325.991682434402 
680	 374.979747503019 
681	 426.722756936841 
682	 484.497153020724 
683	 548.26652863207 
684	 615.819598083837 
685	 688.39427429905 
686	 766.142524465144 
687	 848.73607367974 
688	 934.792693465213 
689	 1024.29009559617 
690	 1116.84472118734 
691	 1210.71662289891 
692	 1307.99389848898 
693	 1408.15575691265 
694	 1508.51426771556 
695	 1608.10258863094 
696	 1706.85501448075 
697	 1804.94542583823 
698	 1900.77421048536 
699	 1996.69136748737 
700	 2092.46743237188 
701	 2179.6023214699 
702	 2265.16033662998 
703	 2350.67552991947 
704	 2432.52061518752 
705	 2511.83447792155 
706	 2586.67778651174 
707	 2655.1255001436 
708	 2724.41034118711 
709	 2790.6616547739 
710	 2851.25928760091 
711	 2911.79897022073 
712	 2968.34034726727 
713	 3020.27287312676 
714	 3070.69854101045 
715	 3118.53003643911 
716	 3163.93079637339 
717	 3207.41679233593 
718	 3248.98653289956 
719	 3288.70051593818 
720	 3326.4290221081 
721	 3361.60777031003 
722	 3393.24538243421 
723	 3422.34078838254 
724	 3452.6037531977 
725	 3480.98100989095 
726	 3508.24806302613 
727	 3536.27156836282 
728	 3561.3130024369 
729	 3583.70833515579 
730	 3605.0967078957 
731	 3629.15168461386 
732	 3653.22206487106 
733	 3676.06013525933 
734	 3698.41072156756 
735	 3717.60556825762 
736	 3735.62143874767 
737	 3756.13333762216 
738	 3775.49673578686 
739	 3792.73237052934 
740	 3807.98848009718 
741	 3823.69893721742 
742	 3838.5499840954 
743	 3851.34778999904 
744	 3860.65943572349 
745	 3872.03233658982 
746	 3884.25546670294 
747	 3893.41245543797 
748	 3902.57461183934 
749	 3911.44563200311 
750	 3919.45295319471 
751	 3927.16729649962 
752	 3932.35041538982 
753	 3935.56885438352 
754	 3941.2723738587 
755	 3945.51781108646 
756	 3948.26138695571 
757	 3950.65593900854 
758	 3949.80563593325 
759	 3946.10407248653 
760	 3941.69472372651 
761	 3942.53479539574 
762	 3945.23392618343 
763	 3947.26440029433 
764	 3946.87340285253 
765	 3946.4998394386 
766	 3946.42891028198 
767	 3945.86588000959 
768	 3941.59562713346 
769	 3937.83254417568 
770	 3936.72751407416 
771	 3931.53481253775 
772	 3926.010390916 
773	 3921.14934300971 
774	 3915.25276591604 
775	 3908.42918096296 
776	 3901.79035134561 
777	 3896.43649810125 
778	 3890.18547345696 
779	 3883.16840960202 
780	 3875.33323282161 
781	 3865.22413156237 
782	 3855.25262993597 
783	 3845.80857446979 
784	 3835.62967801865 
785	 3824.42667543723 
786	 3812.66715326279 
787	 3801.1345653261 
788	 3790.99030407926 
789	 3779.17092067993 
790	 3765.18459269971 
791	 3754.9635594507 
792	 3741.16616656807 
793	 3724.74201647062 
794	 3711.65084386776 
795	 3698.02879771372 
796	 3684.00109711061 
797	 3670.20270980992 
798	 3655.94587203825 
799	 3640.7391821768 
800	 3625.20540610551 
801	 3611.94046822876 
802	 3597.81692505001 
803	 3582.93779101901 
804	 3568.83012103267 
805	 3555.894229021 
806	 3541.67013100673 
807	 3524.96375938574 
808	 3510.14478140218 
809	 3494.29422122092 
810	 3476.99703053552 
811	 3460.52693203583 
812	 3444.9788123377 
813	 3429.24593059705 
814	 3412.03556759207 
815	 3394.44658460947 
816	 3377.76301448453 
817	 3362.10423411257 
818	 3344.93707259078 
819	 3328.19944213483 
820	 3311.35802658581 
821	 3292.33020029281 
822	 3272.45725589399 
823	 3254.09142891861 
824	 3238.45839181526 
825	 3221.09075500306 
826	 3204.17179818806 
827	 3188.00213260853 
828	 3169.74031272333 
829	 3151.83471001854 
830	 3133.73015164284 
831	 3113.78422018454 
832	 3092.19841773924 
833	 3069.33852319948 
834	 3046.14246905238 
835	 3024.63929479284 
836	 3005.89935435749 
837	 2990.06701672821 
838	 2976.4378697925 
839	 2964.7585108938 
840	 2954.23983020745 
841	 2943.43247033351 
842	 2928.4845747873 
843	 2912.01441614709 
844	 2895.46971268771 
845	 2877.95557676702 
846	 2861.84038866599 
847	 2846.09828789638 
848	 2828.30757463903 
849	 2807.94328453948 
850	 2788.81712371872 
851	 2772.75522195814 
852	 2755.25942514238 
853	 2738.3462067079 
854	 2721.48134833813 
855	 2702.41812515548 
856	 2683.0830873144 
857	 2665.18770548477 
858	 2649.12085331728 
859	 2630.13029813613 
860	 2611.55620596742 
861	 2594.36674968351 
862	 2576.28243472256 
863	 2557.3407671454 
864	 2538.90678646559 
865	 2522.21907076326 
866	 2503.62768237482 
867	 2484.57928102825 
868	 2466.25150664884 
869	 2448.46340203637 
870	 2430.58435135223 
871	 2412.58482603392 
872	 2394.75626835102 
873	 2376.96552888207 
874	 2359.61687519176 
875	 2342.5587146504 
876	 2323.84400484279 
877	 2304.63234358694 
878	 2285.11146392838 
879	 2264.76815932886 
880	 2245.60510312014 
881	 2225.87473441528 
882	 2204.13122285184 
883	 2183.86695039611 
884	 2163.18017697721 
885	 2141.17388240954 
886	 2118.2443948983 
887	 2094.82890378222 
888	 2071.1816117709 
889	 2047.45922229883 
890	 2023.42473723055 
891	 2001.0750058141 
892	 1980.87441220338 
893	 1960.73955706242 
894	 1941.25097144747 
895	 1923.16685451701 
896	 1907.1173311644 
897	 1891.65966424643 
898	 1876.0022281569 
899	 1860.99719497157 
900	 1851.05872560867 
901	 1840.69831880539 
902	 1830.60169204075 
903	 1823.97906402428 
904	 1817.72976385932 
905	 1812.82537935471 
906	 1808.64653485477 
907	 1799.38991521172 
908	 1788.40284936474 
909	 1777.33511810764 
910	 1766.80910838336 
911	 1754.77319390944 
912	 1741.71462128382 
913	 1728.67228452981 
914	 1717.19534326767 
915	 1704.84626543627 
916	 1690.77528920124 
917	 1675.47162098394 
918	 1662.89261253803 
919	 1650.89773021759 
920	 1637.1662060462 
921	 1622.17856397144 
922	 1608.05870440265 
923	 1593.94646193472 
924	 1577.08749151392 
925	 1563.28903792801 
926	 1550.51703368318 
927	 1536.35493458291 
928	 1522.07371147131 
929	 1507.38759420568 
930	 1492.24927482433 
931	 1476.77014447493 
932	 1460.61299812605 
933	 1444.80094350079 
934	 1429.98445232532 
935	 1414.95649865952 
936	 1400.29602873589 
937	 1386.60177551843 
938	 1374.28121681916 
939	 1360.14773489553 
940	 1345.71549243001 
941	 1332.38669783485 
942	 1318.76675659382 
943	 1305.08116073096 
944	 1290.90500938531 
945	 1275.62300771583 
946	 1261.46408349963 
947	 1248.0039543215 
948	 1234.50652539844 
949	 1220.53824838183 
950	 1207.09738307062 
951	 1194.13599924773 
952	 1180.97199755622 
953	 1166.80929871859 
954	 1153.08747001897 
955	 1140.31551243368 
956	 1126.26083483029 
957	 1113.72237838836 
958	 1101.61646246922 
959	 1087.47705198808 
960	 1071.95013677299 
961	 1058.13082883965 
962	 1045.99418938502 
963	 1029.96857975659 
964	 1015.59438818212 
965	 1003.27269946044 
966	 1631.24106766575 
967	 1652.43760175277 
968	 1670.69129659738 
969	 1693.75619731411 
970	 1721.81841142999 
971	 1746.37357275847 
972	 1770.54374924177 
973	 1797.22726851623 
974	 1824.11905993951 
975	 1850.55482307868 
976	 1878.08603108476 
977	 1908.29990061354 
978	 1935.66856433523 
979	 1959.76734746631 
980	 1984.88892672633 
981	 2010.60042953615 
982	 2032.41186662634 
983	 2053.18593959435 
984	 2074.56577981804 
985	 2094.00819337994 
986	 2113.51587825321 
987	 2134.05316246417 
988	 2151.60384041302 
989	 2167.00520961394 
990	 2181.53448769549 
991	 2192.8266879104 
992	 2207.35113845898 
993	 2222.9589952844 
994	 2238.40485353382 
995	 2252.41897645715 
996	 2264.88583576471 
997	 2278.96433418623 
998	 2294.82963244486 
999	 2311.91595518879 
1000	 2330.11725908805 
1001	 2344.29677846733 
1002	 2355.29363488718 
1003	 2368.55920196233 
1004	 2382.53405685807 
1005	 2397.25403668804 
1006	 2414.50465548859 
1007	 2428.88297821204 
1008	 2441.15510234325 
1009	 2456.90276515201 
1010	 2474.94213126514 
1011	 2493.21120008161 
1012	 2517.63482153469 
1013	 2537.47848909908 
1014	 2549.0614525363 
1015	 2562.06167659003 
1016	 2575.79094066844 
1017	 2591.00811741835 
1018	 2610.97553074631 
1019	 2632.20681592379 
1020	 2651.39361328524 
1021	 2670.46596009163 
1022	 2687.28055788544 
1023	 2702.72145804825 
1024	 2715.9945632534 
1025	 2730.61970805102 
1026	 2745.77136153907 
1027	 2760.98170982815 
1028	 2776.94685880209 
1029	 2794.3429936896 
1030	 2807.87172113119 
1031	 2823.59909933366 
1032	 2844.78563585558 
1033	 2861.08785582082 
1034	 2876.68742578766 
1035	 2889.44121731048 
1036	 2901.11124360358 
1037	 2915.71148452817 
1038	 2929.70921347358 
1039	 2947.25385426521 
1040	 2964.50832559266 
1041	 2980.73924911365 
1042	 2996.8539699732 
1043	 3014.42325270354 
1044	 3032.30371835953 
1045	 3045.4995468157 
1046	 3059.68300840691 
1047	 3075.52492936715 
1048	 3087.69602887759 
1049	 3101.23386732606 
1050	 3116.17076084608 
1051	 3128.51925263478 
1052	 3143.38487973824 
1053	 3160.88653909304 
1054	 3177.84925060064 
1055	 3193.0732235312 
1056	 3207.42919219358 
1057	 3220.91616692228 
1058	 3230.65876322575 
1059	 3242.94820933458 
1060	 3256.4417889165 
1061	 3269.83994438325 
1062	 3283.94553930134 
1063	 3297.51258535536 
1064	 3309.28968451349 
1065	 3322.43853542754 
1066	 3337.49219993487 
1067	 3352.55048408495 
1068	 3366.36938166925 
1069	 3379.59134176537 
1070	 3392.39646206399 
1071	 3405.27392671733 
1072	 3422.08383731094 
1073	 3438.52756927862 
1074	 3453.98450636323 
1075	 3467.86732978271 
1076	 3483.7496193827 
1077	 3500.64886219379 
1078	 3516.79803749422 
1079	 3533.05411241779 
1080	 3549.44605636405 
1081	 3563.3751345251 
1082	 3581.59824815374 
1083	 3602.42902595746 
1084	 3624.50049778902 
1085	 3646.71177199702 
1086	 3667.51630364453 
1087	 3689.75865374637 
1088	 3710.14697750395 
1089	 3731.69085020261 
1090	 3752.47742130015 
1091	 3773.33632742516 
1092	 3792.13925348595 
1093	 3814.96613327905 
1094	 3838.51684843649 
1095	 3865.33653001339 
1096	 3895.88069763716 
1097	 3924.42507121193 
1098	 3955.41076342031 
1099	 3984.71711888244 
1100	 4011.10330675443 
1101	 4040.3461487538 
1102	 4071.72410095056 
1103	 4101.80347536599 
1104	 4130.98562323675 
1105	 4162.54605228567 
1106	 4195.68496361599 
1107	 4229.16877680683 
1108	 4266.72336852521 
1109	 4306.64011551517 
1110	 4344.93858468502 
1111	 4383.46106777515 
1112	 4421.61283975027 
1113	 4459.27328391702 
1114	 4497.70236455163 
1115	 4537.54050929075 
1116	 4574.43845674559 
1117	 4612.60778876155 
1118	 4646.10566754009 
1119	 4676.75027802299 
1120	 4704.56484158862 
1121	 4728.37262265835 
1122	 4751.56134875529 
1123	 4772.66083868096 
1124	 4791.65257563708 
1125	 4808.96501307503 
1126	 4825.44617258476 
1127	 4838.06737658281 
1128	 4847.79415413427 
1129	 4855.72331842366 
1130	 4858.94720113428 
1131	 4866.30670946059 
1132	 4871.25191928189 
1133	 4882.03171929066 
1134	 4894.90908019451 
1135	 4912.47271073196 
1136	 4934.37962639325 
1137	 4957.83372593361 
1138	 4986.89087729031 
1139	 5014.19561451997 
1140	 5044.99590000884 
1141	 5071.32785511251 
1142	 5099.07761599986 
1143	 5120.51656549447 
1144	 5140.04988246937 
1145	 5152.15473734515 
1146	 5161.89131524657 
1147	 5161.04980702956 
1148	 5151.89743151415 
1149	 5135.28474320601 
1150	 5109.57261371013 
1151	 5072.54751642427 
1152	 5033.25722544319 
1153	 4985.5641392664 
1154	 4937.10180098243 
1155	 4882.28868474548 
1156	 4830.09750471553 
1157	 4775.66430900128 
1158	 4721.57628016949 
1159	 4665.97224551646 
1160	 4613.32430734802 
1161	 4558.74469849858 
1162	 4509.76804512269 
1163	 4465.10545522934 
1164	 4422.57758052428 
1165	 4383.05620771872 
1166	 4345.83376477411 
1167	 4310.74101700102 
1168	 4278.18599768422 
1169	 4246.68007343321 
1170	 4223.37068666368 
1171	 4209.27120037676 
1172	 4198.8827933407 
1173	 4204.55119243408 
1174	 4221.31521346459 
1175	 4248.78253012231 
1176	 4284.90397974989 
1177	 4339.29504644775 
1178	 4407.16102754336 
1179	 4487.88013978657 
1180	 4587.621615145 
1181	 4692.87392305875 
1182	 4810.94854894987 
1183	 4932.60634582903 
1184	 5070.93519549098 
1185	 5199.9256136194 
1186	 5336.13051313541 
1187	 5460.50346658824 
1188	 5581.72005255822 
1189	 5690.88277419879 
1190	 5792.05520527524 
1191	 5881.76838761377 
1192	 5960.86075856426 
1193	 6032.65411875008 
1194	 6091.69005037671 
1195	 6145.8485479772 
1196	 6194.63742237813 
1197	 6233.44673346937 
1198	 6272.51014918348 
1199	 6307.54581204303 
1200	 6342.08242762609 
1201	 6371.04713817207 
1202	 6404.62126767648 
1203	 6437.92916198771 
1204	 6473.11813382588 
1205	 6512.20721135261 
1206	 6548.92761292947 
1207	 6585.55606644648 
1208	 6621.7688471715 
1209	 6656.45285613566 
1210	 6692.09958356178 
1211	 6727.7893657781 
1212	 6764.9518321345 
1213	 6799.94283452582 
1214	 6836.83378849885 
1215	 6875.58552373011 
1216	 6911.41677775847 
1217	 6946.79761408194 
1218	 6983.57219024303 
1219	 7017.46675230139 
1220	 7049.97673746231 
1221	 7084.29744054674 
1222	 7119.73717363709 
1223	 7154.21220421688 
1224	 7189.89475622206 
1225	 7222.45820207699 
1226	 7254.05763621282 
1227	 7284.05897247445 
1228	 7311.17179928609 
1229	 7339.53134541417 
1230	 7369.20621699132 
1231	 7395.34602179935 
1232	 7419.87002654441 
1233	 7442.58391416836 
1234	 7460.21724711913 
1235	 7480.49347885461 
1236	 7500.57267116636 
1237	 7523.18274072763 
1238	 7543.40146750553 
1239	 7565.3874911939 
1240	 7585.21006730066 
1241	 7600.69044555014 
1242	 7618.70826171618 
1243	 7636.38763537181 
1244	 7653.40419619256 
1245	 7672.09245195709 
1246	 7687.51539472919 
1247	 7702.49110145305 
1248	 7717.16040630907 
1249	 7731.13635720258 
1250	 7746.79749773586 
1251	 7763.93764313106 
1252	 7780.43402288129 
1253	 7798.6502655475 
1254	 7813.87481901125 
1255	 7826.10663237025 
1256	 7841.79022369153 
1257	 7857.2028904231 
1258	 7873.94937283907 
1259	 7895.57554286953 
1260	 7912.9206589639 
1261	 7929.46818156389 
1262	 7942.82504062947 
1263	 7952.96213228139 
1264	 7963.78106437453 
1265	 7973.47120027228 
1266	 7982.58818911231 
1267	 7994.8675857861 
1268	 8005.47894587074 
1269	 8014.23559494726 
1270	 8022.59456009819 
1271	 8027.155068678 
1272	 8028.81119870035 
1273	 8029.27502170466 
1274	 8029.50177969137 
1275	 8027.36024581159 
1276	 8023.62578508572 
1277	 8019.83708425011 
1278	 8012.90701923624 
1279	 8003.6501379466 
1280	 7992.33947495095 
1281	 7979.72524938027 
1282	 7962.97632742568 
1283	 7948.70045440139 
1284	 7934.95857040449 
1285	 7920.75722336944 
1286	 7907.23972189022 
1287	 7892.24397541786 
1288	 7876.38490720796 
1289	 7859.21767542622 
1290	 7842.85857681711 
1291	 7827.54946456929 
1292	 7815.47193239143 
1293	 7807.29520440376 
1294	 7797.09347829007 
1295	 7786.45439182341 
1296	 7776.99082149008 
1297	 7767.10289151493 
1298	 7760.48483327313 
1299	 7756.90519013047 
1300	 7750.5963782308 
1301	 7745.44103667119 
1302	 7747.63835611846 
1303	 7750.83241268812 
1304	 7753.01009174908 
1305	 7756.1924840991 
1306	 7757.86198013924 
1307	 7758.6418425157 
1308	 7762.58629127969 
1309	 7770.80024925056 
1310	 7776.94619577253 
1311	 7778.53851688026 
1312	 7781.31065616177 
1313	 7783.58654028033 
1314	 7784.83313014484 
1315	 7784.4093411023 
1316	 7788.36127996745 
1317	 7793.50278112951 
1318	 7798.93024568504 
1319	 7806.64971875715 
1320	 7813.90849319513 
1321	 7820.99997445059 
1322	 7829.56397389521 
1323	 7838.34304230236 
1324	 7846.84239491457 
1325	 7856.48502112649 
1326	 7863.09966472758 
1327	 7869.30218539259 
1328	 7872.25286711967 
1329	 7870.9585679368 
1330	 7867.30914642467 
1331	 7858.54767146252 
1332	 7845.07786148751 
1333	 7823.44873012518 
1334	 7791.07631355282 
1335	 7750.96626120558 
1336	 7701.08746134147 
1337	 7637.48164798035 
1338	 7564.99393338367 
1339	 7479.15010689023 
1340	 7383.80849170998 
1341	 7282.14119861026 
1342	 7175.47998943185 
1343	 7068.32754013916 
1344	 6962.4163138152 
1345	 6861.83830945326 
1346	 6768.33714222846 
1347	 6684.24802163787 
1348	 6605.91880639429 
1349	 6540.31339709805 
1350	 6488.47023987994 
1351	 6439.83730718872 
1352	 6402.98221441337 
1353	 6365.44171984829 
1354	 6332.7919907517 
1355	 6298.56760327695 
1356	 6265.68667125723 
1357	 6231.87358448448 
1358	 6187.35437372435 
1359	 6138.48681872952 
1360	 6084.0802011576 
1361	 6027.79718711231 
1362	 5970.18525385008 
1363	 5914.46575542721 
1364	 5863.53582469557 
1365	 5813.72599368292 
1366	 5775.4153687818 
1367	 5750.42138323509 
1368	 5733.01380215716 
1369	 5723.66619371741 
1370	 5724.90113159062 
1371	 5728.56077048676 
1372	 5735.88719055669 
1373	 5742.73517684866 
1374	 5741.08913620625 
1375	 5739.82586418168 
1376	 5734.36532432174 
1377	 5723.88044083388 
1378	 5710.02256155914 
1379	 5693.1391328226 
1380	 5675.04643744651 
1381	 5659.24527001318 
1382	 5652.67267003868 
1383	 5655.09537796574 
1384	 5665.11441365092 
1385	 5680.65947931619 
1386	 5703.11749479503 
1387	 5731.35986036259 
1388	 5763.60773282684 
1389	 5802.04607881889 
1390	 5843.17244854824 
1391	 5892.57583386264 
1392	 5934.67593368829 
1393	 5978.92200127916 
1394	 6016.88160641552 
1395	 6050.16928309187 
1396	 6079.7636816398 
1397	 6105.92626560205 
1398	 6128.47189005328 
1399	 6150.5679644045 
1400	 6171.87738913333 
1401	 6193.64786213525 
1402	 6217.45677803949 
1403	 6240.31599258698 
1404	 6265.51318711967 
1405	 6292.89670386632 
1406	 6319.43395238675 
1407	 6350.82932389723 
1408	 6387.01926591066 
1409	 6427.93133298326 
1410	 6474.22646600226 
1411	 6523.91445195742 
1412	 6572.69259682687 
1413	 6621.76133139516 
1414	 6675.71747317696 
1415	 6728.82832737692 
1416	 6781.31996726089 
1417	 6833.96941384476 
1418	 6883.25791999473 
1419	 6933.16676447852 
1420	 6984.61390063525 
1421	 7036.8342228732 
1422	 7089.46777377379 
1423	 7138.68054681515 
1424	 7183.38958715323 
1425	 7224.40857752862 
1426	 7259.28852996693 
1427	 7290.67244117533 
1428	 7317.62229966973 
1429	 7336.81248559041 
1430	 7353.82087875275 
1431	 7364.48890909349 
1432	 7367.71126855957 
1433	 7366.94567450038 
1434	 7358.70347217305 
1435	 7342.68227711684 
1436	 7325.11779581286 
1437	 7308.94505335109 
1438	 7294.1329586668 
1439	 7282.21469249903 
1440	 7272.16795554853 
1441	 7261.7506167204 
1442	 7251.52607700661 
1443	 7246.46538457035 
1444	 7245.23654226222 
1445	 7249.10859199596 
1446	 7260.48829680107 
1447	 7272.31889907922 
1448	 7286.41212618492 
1449	 7305.64192081697 
1450	 7328.97353732477 
1451	 7352.82786421525 
1452	 7381.18710313593 
1453	 7408.56231947052 
1454	 7434.05484276583 
1455	 7457.58157475858 
1456	 7479.37822043539 
1457	 7501.16686524523 
1458	 7522.1976992046 
1459	 7543.3891619263 
1460	 7564.89137271902 
1461	 7588.94005034897 
1462	 7611.3310788624 
1463	 7635.76517635323 
1464	 7663.83721453723 
1465	 7690.74634006594 
1466	 7722.06685048206 
1467	 7753.32615436078 
1468	 7783.29262562602 
1469	 7813.56041585381 
1470	 7842.75792565957 
1471	 7872.31896340874 
1472	 7903.81945881396 
1473	 7936.24133887703 
1474	 7966.08526788635 
1475	 7993.45820724885 
1476	 8017.25918920496 
1477	 8041.52045968411 
1478	 8065.13230689479 
1479	 8087.09217799773 
1480	 8112.66705077836 
1481	 8136.11766688735 
1482	 8156.28915485865 
1483	 8177.18013355678 
1484	 8195.6443001395 
1485	 8213.93799874519 
1486	 8233.86420055403 
1487	 8253.65250460709 
1488	 8274.14979127831 
1489	 8291.54413506166 
1490	 8309.51230385245 
1491	 8331.01695416105 
1492	 8350.81932040256 
1493	 8370.95910393358 
1494	 8388.34614111506 
1495	 8403.53138654505 
1496	 8421.01485236794 
1497	 8434.14032968016 
1498	 8447.68287215879 
1499	 8463.66295056857 
1500	 8475.22354393928 
1501	 8490.43147098299 
1502	 8506.73813675641 
1503	 8517.6339811092 
1504	 8530.72127053802 
1505	 8539.79392916135 
1506	 8544.79366740546 
1507	 8551.53654155103 
1508	 8553.26037596255 
1509	 8553.53691822943 
1510	 8552.8255349782 
1511	 8550.75906616795 
1512	 8546.24699386206 
1513	 8537.39833262358 
1514	 8528.30074979838 
1515	 8516.15797683115 
1516	 8504.35878276029 
1517	 8493.38515713283 
1518	 8481.15829128283 
1519	 8468.68952335415 
1520	 8456.10447357872 
1521	 8444.86372094095 
1522	 8432.06467588062 
1523	 8419.8451109328 
1524	 8406.08862806559 
1525	 8389.42275115172 
1526	 8376.73829712426 
1527	 8365.23285294997 
1528	 8354.60656998948 
1529	 8344.5166066977 
1530	 8327.80287312937 
1531	 8308.76059877285 
1532	 8292.08533874144 
1533	 8275.41186494854 
1534	 8262.18689472652 
1535	 8252.0488217162 
1536	 8238.4388382624 
1537	 8224.6187757226 
1538	 8210.66488458981 
1539	 8194.35590705679 
1540	 8179.77352457165 
1541	 8165.42798833783 
1542	 8151.1237133578 
1543	 8137.36211213149 
1544	 8125.34692491708 
1545	 8114.65935426769 
1546	 8103.44650175965 
1547	 8096.2967108885 
1548	 8091.35696668344 
1549	 8083.35330199726 
1550	 8075.97506402113 
1551	 8067.93709374104 
1552	 8058.32917082745 
1553	 8050.4357095649 
1554	 8044.10927472145 
1555	 8038.96160975609 
1556	 8031.16155411559 
1557	 8023.41033359825 
1558	 8013.31104197508 
1559	 8000.78152365312 
1560	 7992.1110900382 
1561	 7978.0615337286 
1562	 7964.31496178947 
1563	 7954.78982830048 
1564	 7940.56989540221 
1565	 7927.9554881605 
1566	 7912.87981972766 
1567	 7895.41607278146 
1568	 7879.41530838683 
1569	 7861.29474290406 
1570	 7843.2969281088 
1571	 7823.7275607637 
1572	 7805.03494123429 
1573	 7785.62373040556 
1574	 7766.23312886228 
1575	 7746.39241192189 
1576	 7720.71119606932 
1577	 7693.93684597612 
1578	 7666.3027576801 
1579	 7639.40011728539 
1580	 7613.81037794606 
1581	 7584.9222151442 
1582	 7556.91815870046 
1583	 7528.51645134326 
1584	 7496.79059863466 
1585	 7465.00885863654 
1586	 7429.28105994959 
1587	 7392.04431010941 
1588	 7355.40897354493 
1589	 7319.02578108078 
1590	 7283.40536285044 
1591	 7242.37362826602 
1592	 7196.68974749641 
1593	 7147.56153750264 
1594	 7097.22686077389 
1595	 7047.70292155598 
1596	 6996.90015581283 
1597	 6943.96990444346 
1598	 6886.15486035708 
1599	 6826.16706718025 
1600	 6765.31233901436 
1601	 6704.41459992806 
1602	 6645.39073351243 
1603	 6584.75643143178 
1604	 6522.73558035099 
1605	 6459.23864107706 
1606	 6393.6928619056 
1607	 6331.87434689244 
1608	 6273.34105836403 
1609	 6217.16577138542 
1610	 6167.9570723429 
1611	 6119.47259781746 
1612	 6073.488242458 
1613	 6036.13449649353 
1614	 5998.59998102863 
1615	 5965.92681014178 
1616	 5939.69274208911 
1617	 5912.19413194987 
1618	 5893.78823065748 
1619	 5877.42050409705 
1620	 5860.00591006305 
1621	 5845.912968205 
1622	 5826.5213578023 
1623	 5807.55628013764 
1624	 5788.42025531345 
1625	 5766.33463008113 
1626	 5746.20889826501 
1627	 5724.49549300547 
1628	 5700.45337304621 
1629	 5676.06715635409 
1630	 5648.22187046445 
1631	 5617.51918707452 
1632	 5585.92034095376 
1633	 5550.8520893734 
1634	 5514.8244823015 
1635	 5475.40378800518 
1636	 5432.03854277719 
1637	 5388.36769757036 
1638	 5343.54460976659 
1639	 5295.53871848761 
1640	 5247.28707104419 
1641	 5193.97376793369 
1642	 5137.50445695116 
1643	 5074.9654277813 
1644	 5008.29038015702 
1645	 4935.30838498942 
1646	 4858.52243961561 
1647	 4773.41681678876 
1648	 4684.10900266696 
1649	 4582.65150396043 
1650	 4471.54322136917 
1651	 4351.27373710647 
1652	 4221.08657034105 
1653	 4081.04829897781 
1654	 3934.52061705064 
1655	 3772.55462207735 
1656	 3596.42144998741 
1657	 3412.93340409202 
1658	 3213.80234392778 
1659	 3014.56092206286 
1660	 2803.64555542747 
1661	 2601.27284613084 
1662	 2393.6696424685 
1663	 2201.2254862834 
1664	 2012.42822146588 
1665	 1841.04684554119 
1666	 1678.98100590756 
1667	 1536.82034134384 
1668	 1409.85061262821 
1669	 1299.82810338412 
1670	 1209.31383095642 
1671	 1128.37193051304 
1672	 1063.59953571193 
1673	 1006.02015112828 
1674	 960.889497442591 
1675	 920.563094815239 
1676	 890.460432143973 
1677	 861.68700368906 
1678	 838.186882988212 
1679	 819.515163912634 
1680	 802.514109894058 
1681	 799.519767342266 
1682	 804.022533439943 
1683	 819.671188416576 
1684	 848.347985167591 
1685	 885.645915513635 
1686	 927.645113698047 
1687	 987.425439412488 
1688	 1043.23780317582 
1689	 1109.34377941157 
1690	 1165.96586302067 
1691	 1220.12837554557 
1692	 1264.26287751069 
1693	 1305.35556133908 
1694	 1330.70732068049 
1695	 1344.21277808336 
1696	 1346.15507592414 
1697	 1332.61561762723 
1698	 1311.69802398521 
1699	 1277.81219905006 
1700	 1241.0357127316 
1701	 1195.46252755493 
1702	 1147.32658042267 
1703	 1093.1921849981 
1704	 1039.44442843974 
1705	 980.258734095545 
1706	 924.794340240696 
1707	 868.164721869348 
1708	 817.32004880222 
1709	 769.435886408603 
1710	 724.237900131425 
1711	 683.920015002681 
1712	 644.35435021541 
1713	 604.388282982816 
1714	 571.30667200356 
1715	 540.742743324323 
1716	 518.006427975647 
1717	 502.021048015897 
1718	 489.929981529971 
1719	 483.067671941658 
1720	 481.718451007818 
1721	 485.828017656281 
1722	 492.941286967521 
1723	 505.974549452489 
1724	 520.373568536331 
1725	 536.764031304486 
1726	 556.388179388074 
1727	 580.929674470774 
1728	 608.766820872805 
1729	 643.475788826236 
1730	 685.539462484382 
1731	 728.372726648657 
1732	 776.857804430213 
1733	 821.788715053513 
1734	 866.14367053419 
1735	 908.745588912815 
1736	 950.201032926009 
1737	 988.577953557761 
1738	 1027.15112091074 
1739	 1059.62350923982 
1740	 1088.76059027693 
1741	 1111.92785166559 
1742	 1127.01846183482 
1743	 1142.63470114921 
1744	 1154.32353538619 
1745	 1164.9144258825 
1746	 1174.93403763088 
1747	 1182.62427844462 
1748	 1186.16634740592 
1749	 1191.89363465065 
1750	 1194.79196706571 
1751	 1204.25863770054 
1752	 1215.71875212095 
1753	 1233.47652351746 
1754	 1257.24734897638 
1755	 1284.95062840293 
1756	 956.107385808838 
1757	 988.217082171116 
1758	 1002.45738563612 
1759	 1038.62952482827 
1760	 1086.88049552964 
1761	 1156.0257718528 
1762	 1217.22522673922 
1763	 1257.72665344795 
1764	 1302.40079160014 
1765	 1343.90200517365 
1766	 1378.47047271095 
1767	 1407.28274051282 
1768	 1439.24414194546 
1769	 1467.80029937571 
1770	 1484.48425199438 
1771	 1525.02696834264 
1772	 1565.91694417021 
1773	 1600.66543268154 
1774	 1642.46257380751 
1775	 1678.9991561693 
1776	 1704.4706346951 
1777	 1729.94760777463 
1778	 1757.76814100242 
1779	 1783.85942959583 
1780	 1795.46522823453 
1781	 1820.72592033171 
1782	 1835.73192717537 
1783	 1842.39739184138 
1784	 1850.44304649532 
1785	 1853.57810395776 
1786	 1852.86968584103 
1787	 1865.42638580707 
1788	 1877.67400667074 
1789	 1887.52201416267 
1790	 1892.82893208104 
1791	 1899.70908035222 
1792	 1906.31585988214 
1793	 1902.81694173706 
1794	 1900.13126029853 
1795	 1900.94090214684 
1796	 1893.41186031806 
1797	 1889.24542963255 
1798	 1893.00409865018 
1799	 1893.84538660132 
1800	 1903.65460939439 
1801	 1910.03048776627 
1802	 1912.51907002054 
1803	 1913.27874722513 
1804	 1915.86974960204 
1805	 1917.47700892486 
1806	 1915.04544946496 
1807	 1908.35223249522 
1808	 1918.4719572597 
1809	 1919.66380163245 
1810	 1916.43653506964 
1811	 1926.35612728185 
1812	 1936.38204352499 
1813	 1943.01506768881 
1814	 1961.07144205628 
1815	 1998.93370226182 
1816	 2020.04194364318 
1817	 2037.84797683829 
1818	 2056.83368270384 
1819	 2062.74940970916 
1820	 2062.9836747208 
1821	 2087.38748354817 
1822	 2131.98376957295 
1823	 2159.69167522966 
1824	 2193.70020032275 
1825	 2226.62214403288 
1826	 2241.26632812691 
1827	 2271.44274273853 
1828	 2317.6992026315 
1829	 2365.17877683317 
1830	 2402.90131168104 
1831	 2438.46177167656 
1832	 2474.33585228039 
1833	 2509.85478449581 
1834	 2536.95898233048 
1835	 2551.20469930041 
1836	 2581.6449668287 
1837	 2613.82612623414 
1838	 2644.25045080929 
1839	 2683.88367742769 
1840	 2732.58169315714 
1841	 2764.14051996616 
1842	 2780.41422616381 
1843	 2807.23003554434 
1844	 2832.47385207079 
1845	 2857.87932764452 
1846	 2887.14322877788 
1847	 2913.85140473893 
1848	 2938.29011149924 
1849	 2963.93454155181 
1850	 2989.99815191839 
1851	 3005.3722389734 
1852	 3025.20070417633 
1853	 3042.00115511753 
1854	 3061.38258335052 
1855	 3088.37321259204 
1856	 3106.8295760359 
1857	 3120.48166699979 
1858	 3135.52737300478 
1859	 3149.06633934206 
1860	 3144.75774415605 
1861	 3136.51153218704 
1862	 3124.483528779 
1863	 3116.31508091931 
1864	 3103.49926459427 
1865	 3094.9711612779 
1866	 3088.86371748339 
1867	 3084.76530703744 
1868	 3079.28978844208 
1869	 3081.14029643825 
1870	 3081.53150592508 
1871	 3092.72952847106 
1872	 3101.34973981258 
1873	 3102.96897485856 
1874	 3111.03525551363 
1875	 3113.41251495499 
1876	 3106.43764842146 
1877	 3094.87205995596 
1878	 3075.06771263261 
1879	 3043.46660646915 
1880	 3006.99774475776 
1881	 2966.69341218423 
1882	 2924.05629131403 
1883	 2880.51216769698 
1884	 2825.61558511474 
1885	 2761.06039619496 
1886	 2687.48811356105 
1887	 2612.66628049 
1888	 2528.54821773222 
1889	 2447.57946520094 
1890	 2367.30441672812 
1891	 2291.33393745179 
1892	 2215.59606516818 
1893	 2144.73482898949 
1894	 2079.51525594992 
1895	 2010.60330267203 
1896	 1961.38479477847 
1897	 1918.57565935147 
1898	 1876.65764088475 
1899	 1853.30488872964 
1900	 1851.76013562866 
1901	 1841.7868904923 
1902	 1843.73375816388 
1903	 1853.58775668251 
1904	 1864.0195292038 
1905	 1878.37909584788 
1906	 1884.58214776993 
1907	 1893.73584929313 
1908	 1907.67581789715 
1909	 1915.79859821792 
1910	 1937.23872411766 
1911	 1973.2301895022 
1912	 2004.7793783725 
1913	 2036.48537707024 
1914	 2075.65273339945 
1915	 2124.34861503312 
1916	 2169.98291745697 
1917	 2205.01141929438 
1918	 2237.82925749872 
1919	 2268.26646503115 
1920	 2275.24408752345 
1921	 2311.88217573939 
1922	 2367.0364041977 
1923	 2414.8159692396 
1924	 2474.48893761176 
1925	 2526.39641212945 
1926	 2575.10736873274 
1927	 2622.59961395826 
1928	 2663.04002207771 
1929	 2701.20650450561 
1930	 2726.04697099551 
1931	 2733.10024136604 
1932	 2751.12366164216 
1933	 2756.49138325659 
1934	 2779.74675906915 
1935	 2828.03490513895 
1936	 2850.68015753499 
1937	 2871.38094543566 
1938	 2885.67243128004 
1939	 2885.39308460681 
1940	 2874.73202554601 
1941	 2875.0515062271 
1942	 2877.64519456772 
1943	 2883.02803855459 
1944	 2887.81775548817 
1945	 2899.42804325953 
1946	 2920.4774113468 
1947	 2936.11854276102 
1948	 2953.75534977006 
1949	 2968.96932785285 
1950	 2983.06477951687 
1951	 2994.29437259914 
1952	 3001.5614119074 
1953	 3015.07134851906 
1954	 3019.49017467723 
1955	 3011.46875506078 
1956	 3022.27288172414 
1957	 3037.52988493341 
1958	 3054.14627657303 
1959	 3087.33699917538 
1960	 3107.06746271369 
1961	 3124.11850230201 
1962	 3133.7711873244 
1963	 3133.99138153563 
1964	 3136.91848448104 
1965	 3126.25450474763 
1966	 3131.13872453891 
1967	 3132.57840062722 
1968	 3140.69264519082 
1969	 3139.41327323026 
1970	 3138.91585579732 
1971	 3129.62351276332 
1972	 3108.07552174542 
1973	 3095.22495772612 
1974	 3086.70420934893 
1975	 3068.27908095888 
1976	 3044.97236195526 
1977	 3025.77091282507 
1978	 2997.18261734883 
1979	 2976.48748773423 
1980	 2955.68813789657 
1981	 2940.82236655809 
1982	 2925.88504390319 
1983	 2910.01041505476 
1984	 2895.06541621159 
1985	 2890.34240012057 
1986	 2872.84119718604 
1987	 2847.58093788574 
1988	 2822.6592524112 
1989	 2790.30735979753 
1990	 2760.8357462722 
1991	 2732.37554673841 
1992	 2702.05544615723 
1993	 2671.91909377997 
1994	 2648.68971480391 
1995	 2625.71937382513 
1996	 2605.31952992011 
1997	 2586.95864534952 
1998	 2569.34569813217 
1999	 2556.52848313756 
2000	 2548.74926298678 
2001	 2538.72233111108 
2002	 2537.86526310481 
2003	 2525.10981891057 
2004	 2501.5906291927 
2005	 2485.83633677778 
2006	 2465.03254527724 
2007	 2440.81448466395 
2008	 2430.11269801237 
2009	 2412.60993731708 
2010	 2395.76159809781 
2011	 2382.03020275425 
2012	 2361.67543531601 
2013	 2335.89315929074 
2014	 2313.38849962431 
2015	 2281.60014723807 
2016	 2262.27185430003 
2017	 2249.59550561685 
2018	 2240.08825881181 
2019	 2235.59155769034 
2020	 2242.2844814003 
2021	 2243.52349923268 
2022	 2234.37841729612 
2023	 2218.09765780923 
2024	 2195.83845160571 
2025	 2178.08582661732 
2026	 2152.09738830018 
2027	 2139.68135739174 
2028	 2139.94484464035 
2029	 2130.98679719472 
2030	 2126.45038957544 
2031	 2118.15165629125 
2032	 2103.96651188102 
2033	 2086.91615615577 
2034	 2080.92127019594 
2035	 2079.39078759409 
2036	 2079.76740941349 
2037	 2073.1410827851 
2038	 2064.44891379179 
2039	 2049.20013176952 
2040	 2032.30827513026 
2041	 2026.67580204321 
2042	 2014.52303723284 
2043	 2000.70440773131 
2044	 1987.9270149007 
2045	 1975.0490112559 
2046	 1959.09589278273 
2047	 1940.15275043202 
2048	 1923.59057105271 
2049	 1908.87936264078 
2050	 1885.73066353353 
2051	 1863.40878665343 
2052	 1861.58627700109 
2053	 1850.11462329175 
2054	 1833.38131762349 
2055	 1819.14882415098 
2056	 1793.84498807897 
2057	 1767.73895490493 
2058	 1744.67649442938 
2059	 1724.06543613474 
2060	 1709.7117178012 
2061	 1686.03278768928 
2062	 1655.07361872281 
2063	 1634.71795461789 
2064	 1613.16512477566 
2065	 1600.17893107817 
2066	 1584.8783415086 
2067	 1578.35126635995 
2068	 1562.54660815963 
2069	 1533.00024441732 
2070	 1517.26164270272 
2071	 1485.45304081002 
2072	 1448.85489327001 
2073	 1417.00952976833 
2074	 1374.54807788173 
2075	 1337.95915127028 
2076	 1303.24199344108 
2077	 1272.9060796498 
2078	 1236.75584403484 
2079	 1199.7156194132 
2080	 1162.07769532721 
2081	 1121.3828581381 
2082	 1079.93292599145 
2083	 1044.21872052164 
2084	 1001.07082979591 
2085	 951.992985038892 
2086	 899.481674227627 
2087	 844.140563417938 
2088	 801.581089385073 
2089	 767.505413390896 
2090	 738.272598207316 
2091	 719.121797261953 
2092	 698.375918531714 
2093	 663.166066788407 
2094	 634.117260542673 
2095	 606.760106393003 
2096	 568.35093649415 
2097	 543.53186198715 
2098	 529.355015969959 
2099	 520.833681583541 
2100	 503.724755970142 
2101	 498.93164829858 
2102	 499.707670246724 
2103	 485.941942731522 
2104	 478.38099375507 
2105	 474.001314342967 
2106	 461.566713864811 
2107	 444.644737890806 
2108	 428.68571655896 
2109	 408.565896660487 
2110	 386.867495484215 
2111	 379.037686059081 
2112	 378.676712925421 
2113	 381.081065457126 
2114	 381.215850647571 
2115	 386.897636482465 
2116	 385.370527622374 
2117	 370.739228840096 
2118	 372.335142204172 
2119	 380.218070336423 
2120	 387.593826557396 
2121	 407.292457369788 
2122	 420.161626322843 
2123	 426.034674110977 
2124	 432.524805881198 
2125	 429.503170545312 
2126	 432.701724354487 
2127	 440.026236653259 
2128	 457.782692437337 
2129	 484.637943943379 
2130	 514.12733585234 
2131	 545.170489657309 
2132	 560.996226949318 
2133	 577.122144931252 
2134	 599.659202735097 
2135	 613.148794722957 
2136	 624.419160519577 
2137	 634.315396874829 
2138	 631.039953367576 
2139	 636.145908277144 
2140	 645.702189931239 
2141	 654.852530061816 
2142	 663.746146653515 
2143	 667.240731330582 
2144	 663.736320681026 
2145	 653.581498846859 
2146	 639.537926642726 
2147	 639.668651860095 
2148	 639.36831623877 
2149	 652.630323516057 
2150	 675.996250967141 
2151	 686.405618709347 
2152	 701.406942728157 
2153	 706.549492470774 
2154	 706.36727072368 
2155	 713.879373351191 
2156	 716.490470613406 
2157	 725.38044008472 
2158	 732.90383650208 
2159	 740.310443113539 
2160	 745.060925914392 
2161	 750.069950048916 
2162	 752.338852292958 
2163	 749.138031702536 
2164	 753.624655598411 
2165	 760.446144726526 
2166	 761.426240496544 
2167	 767.772307022082 
2168	 763.764944611211 
2169	 746.339793107797 
2170	 735.956122646462 
2171	 726.412940757457 
2172	 719.588306021267 
2173	 729.666899672024 
2174	 745.096093664532 
2175	 762.577903987906 
2176	 781.394157278762 
2177	 785.631860555294 
2178	 772.7115282253 
2179	 759.977973872067 
2180	 745.808926351686 
2181	 738.232721272683 
2182	 747.769003320065 
2183	 747.089313826685 
2184	 746.699641933727 
2185	 743.421925452089 
2186	 728.383500823773 
2187	 722.407550002067 
2188	 724.25983726231 
2189	 712.155873192396 
2190	 708.296991651841 
2191	 708.36069170429 
2192	 703.217927870774 
2193	 707.488224960409 
2194	 704.895599370566 
2195	 698.457344184929 
2196	 692.675688095057 
2197	 678.636504540389 
2198	 669.379763187881 
2199	 663.348595569659 
2200	 650.396599044088 
2201	 643.237118608391 
2202	 625.68784607334 
2203	 606.533299580781 
2204	 600.935330350178 
2205	 580.625988774345 
2206	 567.426996251346 
2207	 561.555755375224 
2208	 544.269810377589 
2209	 531.300843565502 
2210	 519.324081469063 
2211	 509.309333397077 
2212	 497.901002444267 
2213	 490.286951802302 
2214	 478.65161564499 
2215	 461.267393984912 
2216	 445.015015831459 
2217	 429.34105841495 
2218	 407.92404594892 
2219	 380.392414948413 
2220	 367.008206570801 
2221	 344.489274710556 
2222	 317.433821756278 
2223	 309.34504660595 
2224	 286.377738874624 
2225	 255.383107482824 
2226	 233.077854582403 
2227	 197.450500378335 
2228	 169.786914407991 
2229	 148.893517791 
2230	 127.472216213662 
2231	 110.661366910572 
2232	 91.6906269845909 
2233	 77.6159519631267 
2234	 66.6250768782864 
2235	 57.6937191351525 
2236	 47.7610387549804 
2237	 35.6306508905394 
2238	 28.5832126732857 
2239	 16.1346535112045 
2240	 7.78559841846174 
2241	 8.61345043725833 
2242	 0.998374505386513 
2243	 1.25178640977484 
2244	 13.4186743599713 
2245	 8.99484435494945 
2246	 0.334211141279051 
2247	-3.41156840209181 
2248	-17.998260853163 
2249	-21.8715329033001 
2250	-16.6257175998416 
2251	-15.3706596889264 
2252	-13.8678051596873 
2253	-11.8724766770056 
2254	-8.09453793234002 
2255	-5.76879523016153 
2256	-2.62920950797576 
2257	-2.1338813433861 
2258	-6.68372027967169 
2259	-8.21928007389664 
2260	-12.59461077095 
2261	-8.38342390521612 
2262	-2.59950263964953E-02 
2263	 5.27701644949835 
2264	 11.5886508767332 
2265	 5.69722515173759 
2266	 5.65071452795663 
2267	 1.83605627920898 
2268	-0.821969608015622 
2269	 10.8288317290966 
2270	 5.96302078234802 
2271	 0.326412065366329 
2272	-8.86891484637507 
2273	-26.273391276266 
2274	-31.7761487284652 
2275	-31.5598221631204 
2276	-29.775420380746 
2277	-24.9288492496528 
2278	-26.1065088918241 
2279	-27.8146589756288 
2280	-26.7032185288426 
2281	-22.1157906510502 
2282	-5.98663499320285 
2283	 5.43904857878089 
2284	 11.5011530487119 
2285	 11.0426839647755 
2286	 6.42031523355279 
2287	-15.184089728276 
2288	-18.1175124527303 
2289	-13.0931633758056 
2290	-11.165558381818 
2291	 0.538068947308583 
2292	 4.76078781222917 
2293	 4.31881867779701 
2294	 1.80704604979048 
2295	-9.70147393756876 
2296	-12.0729339544654 
2297	-11.2995742016774 
2298	-10.137646889918 
2299	 0.661999124547563 
2300	 2.68886692763121 
2301	-0.58845403222836 
2302	-3.69557756164984 
2303	-11.2911874291741 
2304	-14.6093823218832 
2305	-21.561117095943 
2306	-21.4663533613311 
2307	-12.3844390804927 
2308	-6.84900223395451 
2309	 4.04399220601737 
2310	 9.16908233254377 
2311	 2.3104735541664 
2312	-11.3864638732166 
2313	-24.7243719959935 
2314	-30.2865248917165 
2315	-26.3476126837605 
2316	-22.1856764991465 
2317	-15.7302064414614 
2318	-12.4352839246459 
2319	-12.1934168253905 
2320	-1.3221136522654 
2321	 6.27911906177224 
2322	 6.10361667220128 
2323	 3.13640035107907 
2324	-4.92847037872412 
2325	-6.40548649811223 
2326	-4.81271185174521 
2327	-4.25659199820691 
2328	-3.36657689811183 
2329	-10.3671618955523 
2330	-17.0530518831247 
2331	-18.4731986823731 
2332	-19.8198347328175 
2333	-30.8249017812356 
2334	-39.6678323967244 
2335	-44.8180823268206 
2336	-49.3048054671945 
2337	-38.5360409975121 
2338	-25.6685908092284 
2339	-8.24052173474404 
2340	 9.73814189076145 
2341	 20.2634575066562 
2342	 27.9008945917971 
2343	 23.1035314649742 
2344	 10.2799404517772 
2345	 2.00760286173612 
2346	-4.01333903266056 
2347	-10.9103158910274 
2348	-15.5572101304873 
2349	-20.4039740803665 
2350	-30.5187732088924 
2351	-34.5035174470133 
2352	-26.7700603475393 
2353	-30.0812882227947 
2354	-32.3914483056987 
2355	-31.5377649765742 
2356	-36.3163236728604 
2357	-26.0940290870637 
2358	-16.4495550986454 
2359	-5.97663756883171 
2360	 7.32803164806022 
2361	 11.2385097311612 
2362	 22.3113219045579 
2363	 31.9455479831672 
2364	 29.6980261902723 
2365	 26.6434507342998 
2366	 17.3644670781466 
2367	 10.8541603018592 
2368	 5.46233479493812 
2369	-2.71939637622666 
2370	-0.510178430548118 
2371	-3.95474426185424 
2372	-5.37955411644516 
2373	-4.24850433055404 
2374	-0.164805987495286 
2375	 2.81659502379418 
2376	-0.880109868445248 
2377	 6.39734048657688 
2378	 9.20889692346131 
2379	 10.0286538447451 
2380	 14.1854165720446 
2381	 16.4016628123247 
2382	 8.99367424641422 
2383	 1.84512933786343 
2384	 4.65022126783924 
2385	 3.91793799887799 
2386	 6.49731799744981 
2387	 13.2803077018517 
2388	 9.22311412368054 
2389	 1.8729959984553 
2390	 9.29496132956164 
2391	 9.96390120373742 
2392	 14.4857109284288 
2393	 15.716492080538 
2394	 1.41552432117003 
2395	-7.40227702216323 
2396	-21.54750171706 
2397	-22.5606673861432 
2398	-19.9320467716761 
2399	-17.1672228617978 
2400	-6.78841483178202 
2401	-4.54476372600581 
2402	-2.60183246849926 
2403	-9.50855149682148 
2404	-18.3981095808252 
2405	-25.4395758367232 
2406	-28.8179646399651 
2407	-14.4413907373527 
2408	-8.21379684865699 
2409	-11.0168946420073 
2410	-13.2202616194105 
2411	-31.7928655787816 
2412	-40.2745692765724 
2413	-30.1492568279496 
2414	-22.4640132183428 
2415	-9.93143872115954 
2416	-5.27233630806155 
2417	-11.729753468576 
2418	-17.5324550550197 
2419	-22.0064085973053 
2420	-14.5060278056104 
2421	-4.57919288819253 
2422	 7.11508672383184 
2423	 21.3034886816535 
2424	 23.3135583912129 
2425	 26.3833796423603 
2426	 23.1042771894807 
2427	 5.76628990018587 
2428	-6.86461830674405 
2429	-25.4653565585527 
2430	-42.8924972480259 
2431	-42.851022432101 
2432	-41.2895944538954 
2433	-30.0098934017216 
2434	-12.8109433081365 
2435	-10.2946933843659 
2436	-7.75913422410092 
2437	-16.1543380450604 
2438	-33.8386192058239 
2439	-29.8083726116555 
2440	-27.9283357453551 
2441	-23.8809208809315 
2442	-1.29625192871224 
2443	-0.158797683947618 
2444	-2.36678199054761 
2445	 13.5474100511678 
2446	 11.2224287550431 
2447	 14.2557224911747 
2448	 28.2860494582544 
2449	 16.8409137285574 
2450	 9.94730891481492 
2451	 4.58809908275404 
2452	-8.26109464322325 
2453	-7.15714255429873 
2454	-3.0207888217622 
2455	 4.52694619882168 
2456	 8.77746900929794 
2457	 11.0064283049318 
2458	 16.4568912932538 
2459	 14.478713439635 
2460	 13.357615940968 
2461	 14.5296829410898 
2462	 2.96104632776399 
2463	-0.407801288695504 
2464	 6.12629318396739 
2465	 6.87767288284657 
2466	 7.47839086548039 
2467	-0.758200319383 
2468	-7.84282338303956 
2469	-15.3107739649907 
2470	-14.497035794154 
2471	-2.57271884959183 
2472	 8.67078305178702 
2473	 19.3627167315132 
2474	 24.0460452708574 
2475	 14.1966149399076 
2476	 3.84446754790537 
2477	-9.21168350799734 
2478	-23.1997121003738 
2479	-18.3334423130302 
2480	-15.9276425032568 
2481	-14.7498469496672 
2482	-6.14934727474662 
2483	-2.77911478036041 
2484	-0.544624321019588 
2485	 12.2066291731387 
2486	 23.7083761169488 
2487	 25.5798279571514 
2488	 32.0009807739175 
2489	 30.1382808674032 
2490	 17.9601346274364 
2491	 10.3905900463966 
2492	 1.77218750976386 
2493	 2.9651033998684 
2494	 14.687642763366 
2495	 16.4438244355328 
2496	 19.1443061721034 
2497	 18.6470909287227 
2498	 11.7640893670439 
2499	 12.4514087944426 
2500	 16.0140497902253 
