Wavelength	Reference_BluePLA00000.asd
350	 22.0138313480212 
351	 23.3675163466727 
352	 23.9046250299109 
353	 23.9901237954998 
354	 24.9548383612366 
355	 26.472708155859 
356	 27.95712375914 
357	 29.0112986419324 
358	 30.0047106104543 
359	 31.2164910302257 
360	 32.8265382226606 
361	 33.7096546723588 
362	 34.0594770104156 
363	 34.4397212396395 
364	 35.5420558968114 
365	 35.979961534269 
366	 35.7674589205485 
367	 36.6853113203438 
368	 39.8408158455918 
369	 42.6712015981279 
370	 42.2422213463731 
371	 42.5316266241142 
372	 43.3415477633241 
373	 44.1621169069227 
374	 44.4938316889506 
375	 45.268953475385 
376	 46.2813019578236 
377	 46.9492664594329 
378	 49.5792658240483 
379	 52.0476400529404 
380	 53.049807299148 
381	 55.8175746263076 
382	 57.50260614591 
383	 58.3875624195332 
384	 61.40845603511 
385	 64.7918705962253 
386	 68.1464002855317 
387	 71.331841308359 
388	 73.7514887704285 
389	 76.8227003716205 
390	 81.0428186820914 
391	 85.4649644007711 
392	 89.8486538954219 
393	 95.0021941040525 
394	 101.785758220876 
395	 106.365535235839 
396	 112.569059062073 
397	 122.24597368071 
398	 129.770155732709 
399	 137.665441243913 
400	 147.139856835075 
401	 158.54965078265 
402	 171.335575252643 
403	 184.232773626599 
404	 196.768661769541 
405	 212.807415382992 
406	 229.536751105675 
407	 246.326487870358 
408	 266.404930096377 
409	 285.970718878741 
410	 306.487406097143 
411	 331.079068777024 
412	 355.43403459615 
413	 380.910769103848 
414	 408.721624658876 
415	 438.010107847814 
416	 465.016221397953 
417	 490.892791901809 
418	 521.213701621506 
419	 549.866608443327 
420	 577.416543736394 
421	 605.90198350241 
422	 634.956418791973 
423	 662.951246174291 
424	 689.330032398789 
425	 715.544089503949 
426	 741.751979589618 
427	 767.716808657887 
428	 792.872248980314 
429	 816.951302839001 
430	 839.877139425481 
431	 861.874509426557 
432	 884.135995874574 
433	 905.030865430487 
434	 924.310685013656 
435	 943.541189790599 
436	 962.001842595889 
437	 979.55540066371 
438	 996.369676452726 
439	 1013.7055033274 
440	 1030.35329799172 
441	 1045.7021422533 
442	 1061.52044861058 
443	 1077.65937326984 
444	 1093.71255643202 
445	 1108.97093282576 
446	 1124.65858438372 
447	 1139.59057673389 
448	 1152.46964338729 
449	 1165.65514713673 
450	 1180.40916761275 
451	 1195.98030654173 
452	 1206.9998262376 
453	 1220.41778357707 
454	 1236.13465736647 
455	 1249.50188517779 
456	 1263.46662356503 
457	 1278.35955094857 
458	 1293.85418514321 
459	 1309.24589893419 
460	 1325.2385626565 
461	 1342.28433816363 
462	 1360.51789002507 
463	 1378.01392679885 
464	 1395.59957569369 
465	 1415.50762959038 
466	 1435.17802720662 
467	 1455.13366905662 
468	 1476.17256087187 
469	 1497.51823749581 
470	 1520.18460416779 
471	 1544.49789285734 
472	 1569.71003353598 
473	 1596.15024969556 
474	 1623.37977934483 
475	 1650.75922763384 
476	 1679.98925017659 
477	 1710.38488699872 
478	 1741.18168095712 
479	 1772.87614371172 
480	 1805.85516277254 
481	 1839.8467451355 
482	 1873.46703605265 
483	 1910.00721226173 
484	 1948.4033814906 
485	 1985.940760289 
486	 2025.1592163917 
487	 2065.85467368579 
488	 2107.57354600018 
489	 2150.48954716369 
490	 2194.66771855585 
491	 2240.58250025402 
492	 2289.46313932056 
493	 2337.96294287832 
494	 2386.98654726058 
495	 2439.00216891961 
496	 2491.82420697671 
497	 2546.08640948292 
498	 2601.87597776228 
499	 2655.78929295625 
500	 2711.55466997653 
501	 2770.10680560057 
502	 2828.94870398598 
503	 2886.87856464752 
504	 2945.39495211025 
505	 3007.09363360778 
506	 3070.52591371792 
507	 3134.2860954643 
508	 3197.84862846389 
509	 3263.67028057886 
510	 3330.38677373188 
511	 3397.11334641919 
512	 3463.21317035922 
513	 3534.11164578631 
514	 3607.79642778092 
515	 3679.36551152296 
516	 3754.26246015346 
517	 3830.04770556851 
518	 3904.258126079 
519	 3978.72800031228 
520	 4054.88550060618 
521	 4133.23811460265 
522	 4213.30674103302 
523	 4292.43374697467 
524	 4371.31157580663 
525	 4452.16504694567 
526	 4532.79723375476 
527	 4614.06754701272 
528	 4696.27964864015 
529	 4775.01948357444 
530	 4855.27154716145 
531	 4938.25830627333 
532	 5018.92215365268 
533	 5099.33266539254 
534	 5179.09305688519 
535	 5256.95005512544 
536	 5336.66193259455 
537	 5415.61830476094 
538	 5491.10063097296 
539	 5566.05095435898 
540	 5641.14002620806 
541	 5716.0449556823 
542	 5788.51917796089 
543	 5862.15979881505 
544	 5936.05048521718 
545	 6006.52270986054 
546	 6073.89288725495 
547	 6142.10894226121 
548	 6214.03160052824 
549	 6281.70490715219 
550	 6347.27567369784 
551	 6412.14950194376 
552	 6474.45397713837 
553	 6537.28375070865 
554	 6599.76083325808 
555	 6658.02148028332 
556	 6716.3853409567 
557	 6772.90390325816 
558	 6824.67354749202 
559	 6874.71493027111 
560	 6923.14477517023 
561	 6969.06438939507 
562	 7010.20169013668 
563	 7044.66791921487 
564	 7071.73321150093 
565	 7091.72906266931 
566	 7108.20845361948 
567	 7119.90281141604 
568	 7124.00523246454 
569	 7121.05004464649 
570	 7112.14721035686 
571	 7099.48107246698 
572	 7089.09752313498 
573	 7071.23892658879 
574	 7045.0178592099 
575	 7020.32837128814 
576	 6989.10837181052 
577	 6952.36345587711 
578	 6913.89371361509 
579	 6865.22768625395 
580	 6814.05260874134 
581	 6767.73727938023 
582	 6721.78710928494 
583	 6681.89692421798 
584	 6647.4522587586 
585	 6607.63286985381 
586	 6568.3159838177 
587	 6529.20889965715 
588	 6487.78843253893 
589	 6451.40581974979 
590	 6420.19393346403 
591	 6394.05917420893 
592	 6380.50074823193 
593	 6372.07157241857 
594	 6363.82227265869 
595	 6355.09953094251 
596	 6355.77118751605 
597	 6370.60278416722 
598	 6400.80242074107 
599	 6431.8381770411 
600	 6461.85155835862 
601	 6493.59277747811 
602	 6533.78558983273 
603	 6573.58702950834 
604	 6608.35729923033 
605	 6645.61291118007 
606	 6686.23709295557 
607	 6734.67458913186 
608	 6798.81813519955 
609	 6875.00487137593 
610	 6961.02889303745 
611	 7054.02493235061 
612	 7147.38565190741 
613	 7237.43848036104 
614	 7321.6439262492 
615	 7397.69144556812 
616	 7472.22522710629 
617	 7546.80623273045 
618	 7616.4840279593 
619	 7689.3322704637 
620	 7766.05693221552 
621	 7844.1169718754 
622	 7922.37881873286 
623	 8002.43770739162 
624	 8085.08382362197 
625	 8166.27610681031 
626	 8246.21591315142 
627	 8324.59262150246 
628	 8400.21430379572 
629	 8471.39390688833 
630	 8538.41081854795 
631	 8602.82703456617 
632	 8665.82907170741 
633	 8723.62369778073 
634	 8773.85755258104 
635	 8826.92428556539 
636	 8879.8137364982 
637	 8929.73091014464 
638	 8975.42785347224 
639	 9020.52104756212 
640	 9066.82485134091 
641	 9115.02708244383 
642	 9167.54308356673 
643	 9220.36449042427 
644	 9269.36853300757 
645	 9323.54795869336 
646	 9379.23127401261 
647	 9434.33499093137 
648	 9494.63034989604 
649	 9552.0367768383 
650	 9607.39366458677 
651	 9670.37797060739 
652	 9734.37053843394 
653	 9800.84157451811 
654	 9872.83665873475 
655	 9942.8507006952 
656	 10011.2973518722 
657	 10080.1507282337 
658	 10152.2316930098 
659	 10227.1336104873 
660	 10304.1957887278 
661	 10382.4188507046 
662	 10461.725892652 
663	 10541.3322450983 
664	 10620.3066055254 
665	 10699.4729434783 
666	 10780.322832528 
667	 10864.133258338 
668	 10950.9185298861 
669	 11040.6356727817 
670	 11132.716802317 
671	 11225.6249807996 
672	 11320.515826721 
673	 11416.9939960982 
674	 11514.0018048993 
675	 11614.2571072112 
676	 11715.7112257042 
677	 11816.9081763403 
678	 11925.0455080247 
679	 12033.1731947331 
680	 12138.5085943791 
681	 12247.6801688067 
682	 12357.2453378563 
683	 12467.0920421882 
684	 12579.0385577066 
685	 12690.6785995801 
686	 12804.2518748066 
687	 12921.7316640678 
688	 13035.865399911 
689	 13150.8975496569 
690	 13268.9008528195 
691	 13384.994811036 
692	 13500.7790103643 
693	 13616.3596618445 
694	 13730.8149521666 
695	 13838.9469268308 
696	 13945.2647813505 
697	 14055.6314113371 
698	 14160.3785035219 
699	 14264.3453425793 
700	 14369.0636405348 
701	 14462.6841835388 
702	 14555.743752995 
703	 14649.5518736393 
704	 14736.4277270713 
705	 14825.912333961 
706	 14911.5930777761 
707	 14984.0846114986 
708	 15060.9281470002 
709	 15135.3243014091 
710	 15201.9993147205 
711	 15269.7586112889 
712	 15333.6141997304 
713	 15392.3255229295 
714	 15448.6437849859 
715	 15503.93872847 
716	 15557.9639391666 
717	 15609.9397832326 
718	 15662.6381808381 
719	 15713.566076988 
720	 15760.7333364101 
721	 15806.525125143 
722	 15847.7220003617 
723	 15885.5979333173 
724	 15927.2332365192 
725	 15970.3383926239 
726	 16015.2007264186 
727	 16061.9862029233 
728	 16101.2717705262 
729	 16138.9409203126 
730	 16180.495576365 
731	 16220.8240146591 
732	 16264.4940347853 
733	 16310.8367685447 
734	 16352.1094670556 
735	 16389.6986526631 
736	 16425.0416030109 
737	 16459.4963940155 
738	 16486.968927052 
739	 16511.3777933692 
740	 16536.275067788 
741	 16557.4662082413 
742	 16579.7868383442 
743	 16602.9048586967 
744	 16618.9692868938 
745	 16636.8034699731 
746	 16652.9850813441 
747	 16660.3482726788 
748	 16674.1860922213 
749	 16687.0976984269 
750	 16692.2375351653 
751	 16697.9870758279 
752	 16699.2447940042 
753	 16695.9247323824 
754	 16694.7631474406 
755	 16691.6602255054 
756	 16685.6914009796 
757	 16676.1638239096 
758	 16654.5545635943 
759	 16620.9026247273 
760	 16582.9867537756 
761	 16568.4489343106 
762	 16559.3398258405 
763	 16547.594031617 
764	 16536.6597125351 
765	 16522.4060838751 
766	 16504.1054031656 
767	 16482.052132607 
768	 16452.0245831465 
769	 16421.7715337765 
770	 16395.182916857 
771	 16360.2596015165 
772	 16325.6601231351 
773	 16292.3165248448 
774	 16253.2932051921 
775	 16213.8085108391 
776	 16176.1005510768 
777	 16140.1871504709 
778	 16096.8201384749 
779	 16050.3030739191 
780	 16003.6599882232 
781	 15952.5933847741 
782	 15900.8964838592 
783	 15849.2253634887 
784	 15795.7283849241 
785	 15739.8706250986 
786	 15681.9065983965 
787	 15622.9199120868 
788	 15567.0824291408 
789	 15508.4222089717 
790	 15445.9875166947 
791	 15392.0257363586 
792	 15330.2172359683 
793	 15260.3389437315 
794	 15192.0247141762 
795	 15122.0038146713 
796	 15051.414062171 
797	 14982.0444949603 
798	 14915.3871905037 
799	 14848.3896277052 
800	 14778.9749005622 
801	 14706.2643369017 
802	 14634.5477135494 
803	 14565.3817353001 
804	 14498.6642531178 
805	 14431.3163019981 
806	 14361.2400100618 
807	 14287.2936758109 
808	 14209.6241704768 
809	 14133.6518096376 
810	 14059.7531099741 
811	 13982.6856117863 
812	 13909.7058512855 
813	 13837.393554041 
814	 13760.1847181168 
815	 13684.3269819366 
816	 13609.1890455699 
817	 13533.6874517223 
818	 13457.2590000322 
819	 13380.1036414377 
820	 13302.1853552854 
821	 13223.1968876929 
822	 13138.8854655157 
823	 13054.1777055156 
824	 12974.1511856157 
825	 12894.6471255064 
826	 12818.4032530087 
827	 12745.337549408 
828	 12671.4449408602 
829	 12592.190201143 
830	 12507.888661678 
831	 12420.4406150767 
832	 12322.1149262898 
833	 12221.4259594047 
834	 12126.3466656478 
835	 12037.6398541527 
836	 11957.4729394847 
837	 11885.9876414467 
838	 11821.6339588379 
839	 11768.5980965535 
840	 11720.1862850298 
841	 11667.4917075132 
842	 11606.1807315399 
843	 11536.9106163982 
844	 11462.4111560772 
845	 11387.8542853143 
846	 11315.4113938213 
847	 11243.1570296307 
848	 11167.4254769737 
849	 11089.9155224731 
850	 11013.5799338449 
851	 10939.9050080879 
852	 10866.5108757238 
853	 10793.3089821663 
854	 10721.0545697478 
855	 10651.0603288934 
856	 10578.4670840327 
857	 10506.2755853619 
858	 10436.9573296048 
859	 10362.7859806903 
860	 10289.4553317476 
861	 10218.4984956546 
862	 10145.6734847328 
863	 10074.2124391949 
864	 10004.3903709023 
865	 9935.2228812571 
866	 9864.40629214182 
867	 9793.18527222389 
868	 9722.85380067051 
869	 9654.25715641141 
870	 9586.35827424946 
871	 9518.70036858508 
872	 9451.07041089941 
873	 9383.34408193133 
874	 9314.46790402441 
875	 9243.90674773537 
876	 9172.75978997734 
877	 9101.3104528618 
878	 9030.5830875781 
879	 8962.13873993659 
880	 8894.65450724658 
881	 8828.38727194796 
882	 8763.26458292011 
883	 8696.11251806926 
884	 8632.35438965578 
885	 8571.04654937781 
886	 8503.52214708984 
887	 8435.98094904142 
888	 8369.5115965582 
889	 8303.623689263 
890	 8237.29993243151 
891	 8172.56732626078 
892	 8108.89795941148 
893	 8041.3658167934 
894	 7972.62209855013 
895	 7904.7642461735 
896	 7839.32633546524 
897	 7774.04953548587 
898	 7706.90171434658 
899	 7638.8426172872 
900	 7577.50512716633 
901	 7512.91875001316 
902	 7446.54205203939 
903	 7384.58802262076 
904	 7321.63382953234 
905	 7260.23985467785 
906	 7200.81061230588 
907	 7135.98064554723 
908	 7070.73492724612 
909	 7006.80999428342 
910	 6943.93393081521 
911	 6878.70202751434 
912	 6814.21912285951 
913	 6752.74211746987 
914	 6691.59398581411 
915	 6629.91532616229 
916	 6567.54352730625 
917	 6505.00549388384 
918	 6444.27211407612 
919	 6384.0981767258 
920	 6322.95984811135 
921	 6260.40667649955 
922	 6196.68792204932 
923	 6133.59305671046 
924	 6073.8125335671 
925	 6013.6901919278 
926	 5954.89180926946 
927	 5897.93488859392 
928	 5836.85150726857 
929	 5774.77861237928 
930	 5711.68460039504 
931	 5645.50956046858 
932	 5581.33859242887 
933	 5517.30767868929 
934	 5452.3226269509 
935	 5391.98040979888 
936	 5331.4492080483 
937	 5271.92722726195 
938	 5218.22564545844 
939	 5160.22940805117 
940	 5100.65770473131 
941	 5042.77938260336 
942	 4984.53652561922 
943	 4926.13460478931 
944	 4868.27424477301 
945	 4811.90474504419 
946	 4756.06533760503 
947	 4700.72295598484 
948	 4645.70257115973 
949	 4589.81961774649 
950	 4536.13198366297 
951	 4484.0250076994 
952	 4431.01234600387 
953	 4377.99051508673 
954	 4326.59735256441 
955	 4276.56357500665 
956	 4223.02584020037 
957	 4171.97482092757 
958	 4121.57865799671 
959	 4067.42849667167 
960	 4012.92545460007 
961	 3959.6866093073 
962	 3907.68225486986 
963	 3854.50669508522 
964	 3801.78584046911 
965	 3750.16862423867 
966	 6298.18426131332 
967	 6367.13954384327 
968	 6441.53379128731 
969	 6525.62119390885 
970	 6620.29511358169 
971	 6718.17475331593 
972	 6825.97291320175 
973	 6931.56565538514 
974	 7043.81784194185 
975	 7152.44591271173 
976	 7261.61052642171 
977	 7368.28970627104 
978	 7472.67154047291 
979	 7574.79630158919 
980	 7673.09141797936 
981	 7770.61195026424 
982	 7862.8715698323 
983	 7948.95345539436 
984	 8031.47711452068 
985	 8109.26214627399 
986	 8183.33365100787 
987	 8254.49488822964 
988	 8322.69554108789 
989	 8382.48300522753 
990	 8446.36621557224 
991	 8509.17809046269 
992	 8572.9106634909 
993	 8636.68280967617 
994	 8704.55102238973 
995	 8769.87513621492 
996	 8831.46096817136 
997	 8893.53093387147 
998	 8953.89474216574 
999	 9018.00167381657 
1000	 9083.07559398223 
1001	 9144.12558028951 
1002	 9207.4879949858 
1003	 9268.9502164478 
1004	 9327.91482553265 
1005	 9388.8880298016 
1006	 9453.48220306565 
1007	 9513.39353377685 
1008	 9570.44314763074 
1009	 9629.393617682 
1010	 9691.11717906612 
1011	 9750.50786328791 
1012	 9808.84310476926 
1013	 9867.25923788068 
1014	 9918.75504617151 
1015	 9968.03039356675 
1016	 10018.6982879325 
1017	 10067.9590302353 
1018	 10121.6699324166 
1019	 10175.7446422716 
1020	 10228.2169517201 
1021	 10283.6903985601 
1022	 10336.0714032792 
1023	 10388.8059895489 
1024	 10440.4310658742 
1025	 10495.2053761631 
1026	 10549.0200986422 
1027	 10603.3812608199 
1028	 10655.5794782897 
1029	 10707.7120371951 
1030	 10761.9808557114 
1031	 10816.4639364687 
1032	 10874.3072793534 
1033	 10934.1453691499 
1034	 10992.7360978548 
1035	 11051.1193625486 
1036	 11108.9215349259 
1037	 11166.1638244975 
1038	 11220.3357017427 
1039	 11272.3330547054 
1040	 11325.981244401 
1041	 11378.7971295128 
1042	 11430.7788673304 
1043	 11483.3424335321 
1044	 11537.4683958423 
1045	 11587.1804652645 
1046	 11637.0511897677 
1047	 11685.3321394652 
1048	 11731.8270022962 
1049	 11776.2608556442 
1050	 11821.0108239765 
1051	 11865.7198266717 
1052	 11906.8503846536 
1053	 11949.5419062266 
1054	 11991.8845075356 
1055	 12031.4772525794 
1056	 12073.3063244049 
1057	 12112.5443405134 
1058	 12147.0815781209 
1059	 12185.5766197707 
1060	 12225.1526570677 
1061	 12264.3436429066 
1062	 12304.7779312441 
1063	 12346.727635382 
1064	 12385.532743449 
1065	 12425.5825735307 
1066	 12466.3496599761 
1067	 12508.1812710226 
1068	 12550.1694792699 
1069	 12591.9638725115 
1070	 12637.6222428858 
1071	 12685.4076888925 
1072	 12733.9793897999 
1073	 12784.7449293102 
1074	 12834.7555343301 
1075	 12882.6210989058 
1076	 12934.6104009435 
1077	 12990.615119429 
1078	 13043.3736597421 
1079	 13095.1048773888 
1080	 13149.7660961247 
1081	 13200.7440082754 
1082	 13259.1537538378 
1083	 13325.164028066 
1084	 13388.9005950539 
1085	 13454.8675479103 
1086	 13524.7515997326 
1087	 13591.206058571 
1088	 13662.5614213395 
1089	 13737.7195753858 
1090	 13813.6380760983 
1091	 13894.4811948882 
1092	 13978.9478189543 
1093	 14067.488906455 
1094	 14158.1116592925 
1095	 14256.0766122505 
1096	 14360.8138229468 
1097	 14467.4036133543 
1098	 14580.8815428786 
1099	 14694.1911173792 
1100	 14804.7654574704 
1101	 14924.8506057562 
1102	 15049.2232077306 
1103	 15179.5110273371 
1104	 15317.5487979241 
1105	 15460.2798301631 
1106	 15607.173500089 
1107	 15758.4446497682 
1108	 15908.0043481227 
1109	 16062.3949885495 
1110	 16220.8747540663 
1111	 16379.1027063748 
1112	 16546.8652116944 
1113	 16724.858920991 
1114	 16900.0935070076 
1115	 17078.9214445375 
1116	 17259.7397309911 
1117	 17437.2389821666 
1118	 17625.593678013 
1119	 17821.4111133651 
1120	 18019.6866599216 
1121	 18227.0111467081 
1122	 18432.8147333058 
1123	 18637.5494147343 
1124	 18848.3475624272 
1125	 19062.2110145474 
1126	 19278.9840872581 
1127	 19499.8213239229 
1128	 19727.9056526319 
1129	 19951.3862702298 
1130	 20177.475033247 
1131	 20398.44726894 
1132	 20617.4594417844 
1133	 20835.1434686349 
1134	 21049.6578823488 
1135	 21264.4977315654 
1136	 21479.0323853156 
1137	 21691.8768270814 
1138	 21905.6467995465 
1139	 22114.0015421597 
1140	 22319.5679631983 
1141	 22522.5270768474 
1142	 22720.7350216919 
1143	 22917.8894612964 
1144	 23113.9668352308 
1145	 23307.0395704729 
1146	 23498.5716390723 
1147	 23686.0429123856 
1148	 23870.2120092045 
1149	 24051.2808974479 
1150	 24229.2222446634 
1151	 24403.4009895618 
1152	 24575.043462485 
1153	 24744.7255350083 
1154	 24909.5288086454 
1155	 25070.0000400765 
1156	 25228.3876567241 
1157	 25386.3397172802 
1158	 25534.5871666605 
1159	 25677.3504884442 
1160	 25816.0602352179 
1161	 25947.353254938 
1162	 26074.4477286871 
1163	 26199.6727393584 
1164	 26317.5472251486 
1165	 26425.6588891486 
1166	 26532.9664560898 
1167	 26637.0396298769 
1168	 26737.4522720761 
1169	 26832.408983629 
1170	 26922.4781511388 
1171	 27009.0051432594 
1172	 27088.9656402202 
1173	 27168.7377609322 
1174	 27247.7513999363 
1175	 27319.7584640178 
1176	 27387.9408189354 
1177	 27451.4205736901 
1178	 27508.8955086203 
1179	 27563.7914835999 
1180	 27612.3929009588 
1181	 27663.2903755456 
1182	 27712.2810550398 
1183	 27760.0985538113 
1184	 27808.0122791477 
1185	 27854.6627162686 
1186	 27899.0999550702 
1187	 27942.7351240939 
1188	 27987.7239479682 
1189	 28028.9303958866 
1190	 28065.2911264435 
1191	 28102.8881683647 
1192	 28142.214608157 
1193	 28180.2445361673 
1194	 28216.1590880055 
1195	 28248.6387200128 
1196	 28278.2494402773 
1197	 28302.3040405028 
1198	 28327.3869073564 
1199	 28351.7934178043 
1200	 28373.4627503779 
1201	 28392.8962885915 
1202	 28409.9632407692 
1203	 28426.7129805034 
1204	 28438.9869793429 
1205	 28447.3943027335 
1206	 28454.1854010372 
1207	 28455.7664573974 
1208	 28458.4979362748 
1209	 28459.7378221139 
1210	 28461.228860073 
1211	 28461.772907669 
1212	 28464.5007841768 
1213	 28466.0049740023 
1214	 28466.9647976121 
1215	 28467.9240493234 
1216	 28466.5023655747 
1217	 28460.7352012439 
1218	 28456.203556356 
1219	 28453.4907333145 
1220	 28446.9889371223 
1221	 28443.1213741056 
1222	 28442.6506265546 
1223	 28439.3491361679 
1224	 28433.7509094628 
1225	 28430.5716938714 
1226	 28428.0519198816 
1227	 28424.6993408183 
1228	 28421.9749131185 
1229	 28419.9083041899 
1230	 28417.3335138572 
1231	 28414.931761451 
1232	 28411.9424691764 
1233	 28411.711958131 
1234	 28412.4463789414 
1235	 28414.8153474442 
1236	 28420.0503349484 
1237	 28424.7443664624 
1238	 28432.1962297563 
1239	 28438.5011854982 
1240	 28445.1596290351 
1241	 28455.5684087809 
1242	 28469.6477603084 
1243	 28485.8109341271 
1244	 28502.0053945589 
1245	 28521.7907193191 
1246	 28538.1917649086 
1247	 28552.9511726944 
1248	 28574.6226898667 
1249	 28597.2985486046 
1250	 28619.1090100622 
1251	 28642.263812396 
1252	 28665.7339479038 
1253	 28687.291324501 
1254	 28712.195335081 
1255	 28739.7339794969 
1256	 28768.3805743091 
1257	 28798.2632758409 
1258	 28828.9363557691 
1259	 28863.6757484383 
1260	 28895.4408672671 
1261	 28927.6127656212 
1262	 28956.2998946708 
1263	 28983.5416864791 
1264	 29007.301646223 
1265	 29029.076965515 
1266	 29050.2387174626 
1267	 29069.4836329759 
1268	 29080.9246636255 
1269	 29084.7796848458 
1270	 29088.6405405254 
1271	 29087.6009131539 
1272	 29081.1939147848 
1273	 29071.8561608486 
1274	 29054.4574500684 
1275	 29029.7294172314 
1276	 28999.3642189587 
1277	 28963.4731340012 
1278	 28925.6458277543 
1279	 28881.3846724667 
1280	 28829.3641891761 
1281	 28778.0441634798 
1282	 28721.5551710422 
1283	 28666.1581704994 
1284	 28611.5294110736 
1285	 28552.823253275 
1286	 28490.6490666812 
1287	 28430.3122769736 
1288	 28367.2106554585 
1289	 28306.782269627 
1290	 28249.6433940417 
1291	 28192.7500842968 
1292	 28140.4968819696 
1293	 28095.2424430819 
1294	 28052.5174536722 
1295	 28016.9116376168 
1296	 27984.2887928296 
1297	 27955.6593584202 
1298	 27935.3304277395 
1299	 27917.6351551952 
1300	 27906.1254942699 
1301	 27900.5148342548 
1302	 27901.5050958038 
1303	 27906.8039686371 
1304	 27916.0296422813 
1305	 27928.8401768016 
1306	 27942.9645749075 
1307	 27960.7404454081 
1308	 27980.7635484984 
1309	 28004.1707738135 
1310	 28028.7450206718 
1311	 28054.6262987887 
1312	 28082.5858747619 
1313	 28112.2666958152 
1314	 28142.2966609275 
1315	 28174.6592566543 
1316	 28206.8298633024 
1317	 28237.3330201363 
1318	 28274.4243518725 
1319	 28312.6314263808 
1320	 28357.1631796677 
1321	 28408.6556906146 
1322	 28462.1346228515 
1323	 28524.4893192721 
1324	 28588.8656663517 
1325	 28657.9485280477 
1326	 28734.3230308062 
1327	 28812.556825443 
1328	 28895.5040498729 
1329	 28983.7066097269 
1330	 29079.0756131038 
1331	 29179.1931726435 
1332	 29285.2748245319 
1333	 29398.1482646396 
1334	 29512.505174946 
1335	 29630.141767271 
1336	 29750.0911620857 
1337	 29876.9671810405 
1338	 30007.2622109391 
1339	 30133.0078247034 
1340	 30258.6210361207 
1341	 30382.5932443984 
1342	 30502.2058602111 
1343	 30623.6513611759 
1344	 30742.6468062959 
1345	 30851.1982391218 
1346	 30952.1695515011 
1347	 31041.7541434539 
1348	 31118.97750492 
1349	 31189.807361243 
1350	 31252.2581899391 
1351	 31305.0611013649 
1352	 31348.5964175359 
1353	 31387.2623828109 
1354	 31415.0852744721 
1355	 31440.5844184648 
1356	 31469.4906390094 
1357	 31503.4997258205 
1358	 31550.2467655058 
1359	 31608.2466978289 
1360	 31678.9905330604 
1361	 31766.8725226186 
1362	 31873.477454184 
1363	 31998.2195026256 
1364	 32146.7362871871 
1365	 32309.3404844115 
1366	 32487.6300673583 
1367	 32680.4067222277 
1368	 32877.1590236206 
1369	 33070.9877831201 
1370	 33260.8976453762 
1371	 33428.9615237465 
1372	 33571.626565029 
1373	 33685.8815308151 
1374	 33753.4575834067 
1375	 33787.896829545 
1376	 33785.5358864435 
1377	 33758.2017613814 
1378	 33709.8121652163 
1379	 33648.4767630755 
1380	 33576.7247978092 
1381	 33500.0952433724 
1382	 33432.7999869632 
1383	 33370.4744722854 
1384	 33328.6924697471 
1385	 33301.0377667566 
1386	 33289.2827058549 
1387	 33294.3352156707 
1388	 33307.0575005433 
1389	 33330.7475218893 
1390	 33363.5421570118 
1391	 33401.7390218306 
1392	 33458.5409742654 
1393	 33527.10324841 
1394	 33610.0402360402 
1395	 33710.1456889342 
1396	 33821.5318201855 
1397	 33939.1140962113 
1398	 34063.6194843678 
1399	 34191.8370879188 
1400	 34317.2640206261 
1401	 34440.8914688552 
1402	 34561.310560137 
1403	 34673.2140989888 
1404	 34776.1104630311 
1405	 34864.8566903092 
1406	 34944.4990365615 
1407	 35018.0342334008 
1408	 35086.7799750641 
1409	 35154.1485312217 
1410	 35216.5506708051 
1411	 35270.2299755381 
1412	 35321.9308703283 
1413	 35367.2583987106 
1414	 35405.229891087 
1415	 35443.2360825447 
1416	 35471.2950755991 
1417	 35494.4833861928 
1418	 35518.9029349564 
1419	 35534.2935853135 
1420	 35542.1118353148 
1421	 35547.1196453851 
1422	 35541.6173459935 
1423	 35530.4955525253 
1424	 35517.8301422441 
1425	 35495.1841913622 
1426	 35469.3176778053 
1427	 35438.7490495728 
1428	 35403.8255251323 
1429	 35366.9656231252 
1430	 35326.1008834879 
1431	 35283.5675283177 
1432	 35235.2307154232 
1433	 35185.4888253046 
1434	 35135.0408737037 
1435	 35085.5217205577 
1436	 35040.6173738424 
1437	 34995.8719190268 
1438	 34951.2638963486 
1439	 34908.9635448096 
1440	 34868.1794303703 
1441	 34827.4702466346 
1442	 34787.6326430465 
1443	 34746.2397749286 
1444	 34704.3593004718 
1445	 34666.252722777 
1446	 34631.9102880053 
1447	 34596.3745424655 
1448	 34564.521995553 
1449	 34526.8051634659 
1450	 34485.290066011 
1451	 34446.2494782839 
1452	 34404.7215282363 
1453	 34367.9895243094 
1454	 34332.7990441901 
1455	 34290.8438161605 
1456	 34247.2775937054 
1457	 34199.0795663826 
1458	 34148.9296093816 
1459	 34098.0050954553 
1460	 34041.2802366347 
1461	 33978.5360360443 
1462	 33910.0071573533 
1463	 33841.6401162288 
1464	 33777.5310811092 
1465	 33715.022856782 
1466	 33652.343950336 
1467	 33587.2908611759 
1468	 33515.9866929993 
1469	 33450.1360473735 
1470	 33391.729051262 
1471	 33334.8016246027 
1472	 33283.6837390464 
1473	 33232.1223498914 
1474	 33181.3188607919 
1475	 33132.963411562 
1476	 33085.3227167963 
1477	 33040.4395036092 
1478	 32996.392193103 
1479	 32953.9056247283 
1480	 32911.3510282413 
1481	 32868.4741614277 
1482	 32828.4858804815 
1483	 32786.7824867962 
1484	 32745.2353194984 
1485	 32705.0810824386 
1486	 32660.9685743664 
1487	 32615.5810294533 
1488	 32568.569797688 
1489	 32524.4743048843 
1490	 32482.886667016 
1491	 32439.3339209029 
1492	 32400.4328177857 
1493	 32362.2031811793 
1494	 32323.3850218252 
1495	 32289.1059589701 
1496	 32250.6888420027 
1497	 32208.0087538735 
1498	 32166.1495122447 
1499	 32120.1512021847 
1500	 32079.4167674465 
1501	 32041.4503700896 
1502	 31999.5922338299 
1503	 31962.5477334859 
1504	 31923.0502411272 
1505	 31884.1102206158 
1506	 31846.9978646407 
1507	 31806.726076373 
1508	 31765.7873406643 
1509	 31722.0269463673 
1510	 31679.812167478 
1511	 31639.3212942849 
1512	 31598.3164399357 
1513	 31557.6391744911 
1514	 31515.5393820734 
1515	 31472.2459717807 
1516	 31431.998427853 
1517	 31392.5424388941 
1518	 31351.4425339734 
1519	 31310.0476259444 
1520	 31265.8958373433 
1521	 31221.6811868298 
1522	 31176.5307210228 
1523	 31131.8707765873 
1524	 31091.2503262349 
1525	 31048.7361827754 
1526	 31005.4950717599 
1527	 30962.4631153083 
1528	 30915.2161394306 
1529	 30863.9530675222 
1530	 30815.6094834667 
1531	 30768.92810515 
1532	 30718.0543003315 
1533	 30671.1676778831 
1534	 30623.8577430811 
1535	 30572.4620286337 
1536	 30523.9822277759 
1537	 30473.5166398559 
1538	 30422.6430270023 
1539	 30373.3351769272 
1540	 30324.8175152313 
1541	 30276.8114238044 
1542	 30226.9753444952 
1543	 30177.1864355283 
1544	 30122.6129332375 
1545	 30067.0589674783 
1546	 30014.7727952043 
1547	 29959.2211001396 
1548	 29905.1254967364 
1549	 29851.3411679926 
1550	 29794.975992607 
1551	 29739.8312859833 
1552	 29683.3333829286 
1553	 29627.6230586794 
1554	 29571.6294471483 
1555	 29513.2382326657 
1556	 29455.9461333318 
1557	 29398.1692697832 
1558	 29338.0430223804 
1559	 29280.6720351071 
1560	 29225.4373009733 
1561	 29166.1181573788 
1562	 29107.9112829879 
1563	 29048.657017926 
1564	 28985.5307952024 
1565	 28922.5557584152 
1566	 28859.0255447356 
1567	 28796.1142074514 
1568	 28733.9463935187 
1569	 28670.2400674334 
1570	 28603.2213808296 
1571	 28536.073666542 
1572	 28467.8295775536 
1573	 28399.1921567278 
1574	 28333.0803643353 
1575	 28264.8362222234 
1576	 28196.0023611168 
1577	 28129.2775216233 
1578	 28064.8278376123 
1579	 28000.3370310924 
1580	 27934.509756793 
1581	 27866.5155115176 
1582	 27794.7109193922 
1583	 27722.9877668828 
1584	 27648.8457047317 
1585	 27572.6141530625 
1586	 27498.1860593559 
1587	 27423.4745225217 
1588	 27351.8198905491 
1589	 27283.347292401 
1590	 27211.8262122258 
1591	 27140.1629430436 
1592	 27067.5815311358 
1593	 26992.3421316577 
1594	 26921.661782153 
1595	 26850.9180366538 
1596	 26775.6863279767 
1597	 26702.3682409208 
1598	 26628.6456830007 
1599	 26551.4721081085 
1600	 26474.5582568487 
1601	 26399.7743666315 
1602	 26323.512743831 
1603	 26244.7768950218 
1604	 26168.54294974 
1605	 26091.217499103 
1606	 26013.5514535805 
1607	 25938.5377670325 
1608	 25862.4188376487 
1609	 25782.6786162175 
1610	 25700.4260704807 
1611	 25616.1831409138 
1612	 25529.2779396677 
1613	 25445.3709859638 
1614	 25363.9777658885 
1615	 25280.9974480278 
1616	 25197.8903447225 
1617	 25111.2831081341 
1618	 25020.3211015517 
1619	 24929.1552019855 
1620	 24838.0491369881 
1621	 24747.6199215263 
1622	 24654.4899490858 
1623	 24561.5934041595 
1624	 24468.8474856942 
1625	 24371.7369225648 
1626	 24278.1200202617 
1627	 24183.1522472491 
1628	 24085.346831946 
1629	 23990.6682745486 
1630	 23894.4173958192 
1631	 23799.8970865709 
1632	 23707.0686150344 
1633	 23615.4819815302 
1634	 23528.0141537839 
1635	 23439.4781094181 
1636	 23350.3327282122 
1637	 23264.2263734849 
1638	 23179.7882424699 
1639	 23095.1855647308 
1640	 23015.3646637444 
1641	 22932.3045494927 
1642	 22848.0393999144 
1643	 22761.4610797641 
1644	 22673.3950072589 
1645	 22581.9739152366 
1646	 22486.9750427233 
1647	 22392.2441216412 
1648	 22295.9657804003 
1649	 22197.8770554121 
1650	 22099.8752787851 
1651	 21997.9621561502 
1652	 21894.2229279851 
1653	 21785.9099984511 
1654	 21675.1668800443 
1655	 21559.1245750012 
1656	 21440.0147724812 
1657	 21312.687637187 
1658	 21182.1185783766 
1659	 21040.1900366541 
1660	 20890.5919544188 
1661	 20729.4538477453 
1662	 20555.855408003 
1663	 20378.4428155211 
1664	 20187.3957729845 
1665	 20001.8961249636 
1666	 19812.2171113215 
1667	 19628.4147447091 
1668	 19444.5200290024 
1669	 19268.7235750243 
1670	 19093.4563234744 
1671	 18933.5199156395 
1672	 18781.8638266717 
1673	 18641.95521589 
1674	 18513.7940689138 
1675	 18396.9686602544 
1676	 18290.8549193353 
1677	 18193.7097523707 
1678	 18110.0804936508 
1679	 18028.5925895525 
1680	 17954.5606065623 
1681	 17883.3432870792 
1682	 17816.3138243642 
1683	 17757.3045637739 
1684	 17705.3577010902 
1685	 17662.9043571039 
1686	 17624.7965653831 
1687	 17589.2434882624 
1688	 17554.052858291 
1689	 17521.4150757785 
1690	 17488.0163420654 
1691	 17455.5837071244 
1692	 17422.2576152365 
1693	 17386.5411636917 
1694	 17353.4432966058 
1695	 17322.5452638676 
1696	 17290.2169217208 
1697	 17258.8067433793 
1698	 17226.8955835186 
1699	 17192.8249197218 
1700	 17160.3372272068 
1701	 17127.5516994746 
1702	 17097.9125506744 
1703	 17071.5884244199 
1704	 17043.0515669775 
1705	 17017.5027444536 
1706	 16987.7309900345 
1707	 16952.6330186052 
1708	 16921.4092446609 
1709	 16889.3365177856 
1710	 16860.2918290186 
1711	 16836.5550409251 
1712	 16807.0164400599 
1713	 16777.6721766547 
1714	 16743.7858721094 
1715	 16702.4961792401 
1716	 16668.1919966597 
1717	 16634.5807775851 
1718	 16602.2525765361 
1719	 16574.0586131523 
1720	 16543.1405205357 
1721	 16509.1829402944 
1722	 16481.5392582052 
1723	 16456.7084683011 
1724	 16431.4251053836 
1725	 16410.2053757811 
1726	 16383.2473212089 
1727	 16356.1452364506 
1728	 16329.97801518 
1729	 16300.5375569745 
1730	 16276.1193284168 
1731	 16253.4634876233 
1732	 16230.5406615247 
1733	 16208.1224244118 
1734	 16183.7842249377 
1735	 16161.305668292 
1736	 16140.8259294798 
1737	 16120.5920849782 
1738	 16100.9380873896 
1739	 16082.8193444153 
1740	 16067.2311257927 
1741	 16049.5835488917 
1742	 16031.2322476041 
1743	 16013.4124356445 
1744	 15993.5401473201 
1745	 15976.8656748219 
1746	 15962.6701056277 
1747	 15948.589974317 
1748	 15935.5103780522 
1749	 15922.9770023901 
1750	 15911.1271670415 
1751	 15900.5021363442 
1752	 15891.6752050775 
1753	 15881.0164919509 
1754	 15870.677273441 
1755	 15858.4145563025 
1756	 9376.08902531531 
1757	 9502.6640956293 
1758	 9638.25393749678 
1759	 9771.66443184435 
1760	 9918.54934326378 
1761	 10050.0953125695 
1762	 10162.3069898337 
1763	 10279.8192583366 
1764	 10397.5028807723 
1765	 10501.3791228852 
1766	 10617.8820816535 
1767	 10748.6558496055 
1768	 10869.9120592732 
1769	 10983.3264150287 
1770	 11103.3556452481 
1771	 11236.3327702617 
1772	 11361.5083249035 
1773	 11489.2666903536 
1774	 11627.0838402441 
1775	 11755.9553356569 
1776	 11874.9440392737 
1777	 12002.072519864 
1778	 12132.8173011569 
1779	 12263.0683689829 
1780	 12382.6177477765 
1781	 12509.6866369208 
1782	 12642.7029198049 
1783	 12763.3588572055 
1784	 12894.6969904416 
1785	 13037.6225211323 
1786	 13176.0975469072 
1787	 13302.3765543483 
1788	 13430.8605711754 
1789	 13541.4067572444 
1790	 13648.8946577471 
1791	 13767.6316324573 
1792	 13901.6946778745 
1793	 14031.897492823 
1794	 14155.8024094108 
1795	 14280.2580390775 
1796	 14407.3861755422 
1797	 14518.2424109491 
1798	 14634.4937591848 
1799	 14768.5106538616 
1800	 14891.2440324974 
1801	 14999.8351107722 
1802	 15112.2566391937 
1803	 15212.2711247357 
1804	 15301.5735542456 
1805	 15378.8104169478 
1806	 15446.3185195013 
1807	 15509.424432051 
1808	 15555.4346045713 
1809	 15607.3379552652 
1810	 15659.141149046 
1811	 15695.6523811667 
1812	 15740.0775299909 
1813	 15785.0040174417 
1814	 15826.7189000554 
1815	 15864.3112460219 
1816	 15909.7929546167 
1817	 15961.2376372239 
1818	 16002.7248440821 
1819	 16046.8261568014 
1820	 16097.5766990008 
1821	 16131.45638743 
1822	 16150.4652469051 
1823	 16172.6988591523 
1824	 16193.5029741663 
1825	 16205.8784408272 
1826	 16199.8027015156 
1827	 16212.6772380297 
1828	 16231.7675905608 
1829	 16245.7129368288 
1830	 16265.8884994886 
1831	 16301.6370672641 
1832	 16326.6634237968 
1833	 16338.218175229 
1834	 16366.2654422838 
1835	 16399.2482651239 
1836	 16439.293915336 
1837	 16484.7165821447 
1838	 16538.8458637588 
1839	 16607.1400443585 
1840	 16675.8816557689 
1841	 16737.2272150435 
1842	 16801.6844867536 
1843	 16865.2513836232 
1844	 16911.9459869786 
1845	 16980.0509108898 
1846	 17077.3778219025 
1847	 17145.3462347434 
1848	 17203.7525323407 
1849	 17268.1627103742 
1850	 17311.8514914054 
1851	 17360.8452137887 
1852	 17416.223557801 
1853	 17492.5709537793 
1854	 17540.098536599 
1855	 17581.7742597742 
1856	 17611.3316416535 
1857	 17628.9983500856 
1858	 17632.8576920991 
1859	 17629.2022605541 
1860	 17619.9616008651 
1861	 17590.3481547423 
1862	 17546.5619796278 
1863	 17509.3413449995 
1864	 17454.9788136401 
1865	 17421.5096333277 
1866	 17380.915186524 
1867	 17377.0825869699 
1868	 17386.5347233107 
1869	 17424.9818596079 
1870	 17491.8956373742 
1871	 17599.5565942799 
1872	 17736.641668253 
1873	 17891.4722130649 
1874	 18040.6018931263 
1875	 18175.2961831609 
1876	 18297.3894350094 
1877	 18407.8636057697 
1878	 18493.6244928837 
1879	 18567.9465479935 
1880	 18626.6476910169 
1881	 18657.5212367432 
1882	 18672.5775931142 
1883	 18675.4117622512 
1884	 18662.779274884 
1885	 18645.2776488443 
1886	 18616.3047243278 
1887	 18581.5072135485 
1888	 18540.4312004275 
1889	 18494.6363589931 
1890	 18437.7854242112 
1891	 18362.9324014775 
1892	 18281.3628197598 
1893	 18212.8694929988 
1894	 18137.617998028 
1895	 18076.2978957314 
1896	 18026.3619894669 
1897	 17970.2346209807 
1898	 17904.4738672815 
1899	 17854.6201396301 
1900	 17804.8683094806 
1901	 17772.7626866214 
1902	 17753.1246534175 
1903	 17757.2995750302 
1904	 17786.9312731191 
1905	 17806.6369370001 
1906	 17827.9258095539 
1907	 17847.3984322372 
1908	 17858.8822338642 
1909	 17857.6227654695 
1910	 17865.2642108455 
1911	 17874.1800956015 
1912	 17879.6001016709 
1913	 17884.8937630353 
1914	 17883.5335305318 
1915	 17889.2721134195 
1916	 17908.992133602 
1917	 17939.5893321712 
1918	 17973.8066008885 
1919	 18011.2252603886 
1920	 18059.7955733075 
1921	 18097.2077737665 
1922	 18131.5462069069 
1923	 18170.2903310474 
1924	 18209.1592924145 
1925	 18241.8095025598 
1926	 18277.443514209 
1927	 18307.9720121214 
1928	 18329.1080175795 
1929	 18347.9380982945 
1930	 18367.5055724242 
1931	 18390.8362876114 
1932	 18403.9724885897 
1933	 18406.7211796866 
1934	 18416.4862169118 
1935	 18421.2743455954 
1936	 18430.1369431057 
1937	 18451.6552055794 
1938	 18462.4920478207 
1939	 18468.5469572299 
1940	 18471.5376621671 
1941	 18472.0387788859 
1942	 18469.2576840713 
1943	 18460.7610903855 
1944	 18449.694796798 
1945	 18432.5676762003 
1946	 18402.3069648825 
1947	 18381.9393264122 
1948	 18361.2199530689 
1949	 18343.0507524894 
1950	 18340.3165634322 
1951	 18319.7490854087 
1952	 18289.79025184 
1953	 18256.0352368953 
1954	 18224.6904216221 
1955	 18182.9606356946 
1956	 18149.1958448717 
1957	 18125.3215215004 
1958	 18091.3318416126 
1959	 18053.4056846226 
1960	 18012.9531142843 
1961	 17970.4875506765 
1962	 17923.9261132981 
1963	 17868.8761266493 
1964	 17818.6199778779 
1965	 17767.5426142126 
1966	 17717.3328559545 
1967	 17665.9287291907 
1968	 17620.464587958 
1969	 17563.2175191296 
1970	 17500.0021358253 
1971	 17434.7114330014 
1972	 17366.8073883502 
1973	 17291.5065356518 
1974	 17207.5189203943 
1975	 17127.6830725097 
1976	 17037.148053187 
1977	 16956.073920074 
1978	 16887.6761356212 
1979	 16811.1663917591 
1980	 16732.6261281049 
1981	 16655.758891261 
1982	 16575.1000021442 
1983	 16491.578815043 
1984	 16401.0304471186 
1985	 16304.8617641469 
1986	 16212.5177974548 
1987	 16110.013968947 
1988	 16015.9093344302 
1989	 15934.3704681241 
1990	 15845.0475443805 
1991	 15748.6792925073 
1992	 15662.5066808724 
1993	 15577.36272237 
1994	 15471.8811119999 
1995	 15374.4553886822 
1996	 15275.3460858716 
1997	 15178.8343490875 
1998	 15085.5980395568 
1999	 14986.1411306566 
2000	 14881.3782847139 
2001	 14783.5731078839 
2002	 14679.9836836486 
2003	 14587.2046121494 
2004	 14501.7116158449 
2005	 14424.5130102927 
2006	 14355.9219137173 
2007	 14272.9398142498 
2008	 14182.0954248965 
2009	 14082.6301716336 
2010	 13975.2372358941 
2011	 13841.2984364435 
2012	 13735.372816862 
2013	 13637.6439263945 
2014	 13539.6806413294 
2015	 13454.5693441551 
2016	 13364.5099543994 
2017	 13263.9833845578 
2018	 13173.8539362893 
2019	 13090.8212546058 
2020	 13011.4539200385 
2021	 12929.667319218 
2022	 12856.7558195002 
2023	 12774.9883428921 
2024	 12694.1905270506 
2025	 12609.9983281258 
2026	 12523.905438148 
2027	 12432.0688372829 
2028	 12331.2752212775 
2029	 12239.74730131 
2030	 12143.6892257253 
2031	 12062.4783292844 
2032	 11991.8864190624 
2033	 11922.781922008 
2034	 11866.6338403268 
2035	 11809.4062893247 
2036	 11756.4290474018 
2037	 11701.8440929533 
2038	 11629.9073133452 
2039	 11553.0261212174 
2040	 11485.2140754516 
2041	 11424.3038175288 
2042	 11366.9641235734 
2043	 11325.5361287553 
2044	 11276.8051388979 
2045	 11226.3986992954 
2046	 11173.552800578 
2047	 11119.5451211857 
2048	 11064.7139439018 
2049	 11006.3390195132 
2050	 10951.8187379305 
2051	 10893.6370930697 
2052	 10842.4584284164 
2053	 10792.5988491518 
2054	 10734.9289516484 
2055	 10691.9005957407 
2056	 10650.9829678079 
2057	 10596.6281283577 
2058	 10547.6640777058 
2059	 10502.8429163853 
2060	 10453.5978511342 
2061	 10406.5878142045 
2062	 10377.5939187281 
2063	 10331.0825609314 
2064	 10269.1111404112 
2065	 10215.9675069671 
2066	 10167.1051551845 
2067	 10112.2745807634 
2068	 10082.3257676545 
2069	 10040.7798740213 
2070	 9993.47169514016 
2071	 9957.95291844894 
2072	 9897.92550002999 
2073	 9852.69806816032 
2074	 9812.99242728466 
2075	 9757.90756867954 
2076	 9707.81090229919 
2077	 9658.46200329387 
2078	 9605.49387583595 
2079	 9548.19476084047 
2080	 9499.02834729834 
2081	 9450.45765191446 
2082	 9411.85074209182 
2083	 9374.09214972941 
2084	 9330.25893003535 
2085	 9271.37388180121 
2086	 9206.31529369415 
2087	 9144.20777936926 
2088	 9077.86663751315 
2089	 9026.88355055488 
2090	 8979.94344443116 
2091	 8928.03273269811 
2092	 8889.07500608664 
2093	 8841.7406681156 
2094	 8800.5958931008 
2095	 8758.4740933019 
2096	 8714.55708296717 
2097	 8666.68810298361 
2098	 8621.28846090872 
2099	 8569.52145728297 
2100	 8510.25017980382 
2101	 8464.05507104889 
2102	 8413.32049583394 
2103	 8356.13616727479 
2104	 8291.96832990538 
2105	 8219.85739419892 
2106	 8152.18533695893 
2107	 8082.87217407532 
2108	 8015.71456139177 
2109	 7959.37145116803 
2110	 7892.20005103931 
2111	 7814.05553338464 
2112	 7745.05626440459 
2113	 7678.85340095761 
2114	 7619.67275722414 
2115	 7576.63116844416 
2116	 7520.76477537515 
2117	 7463.61366166973 
2118	 7402.83415124977 
2119	 7333.37049154552 
2120	 7264.49205866298 
2121	 7201.44613487251 
2122	 7146.99065208023 
2123	 7097.30737601718 
2124	 7045.99917760626 
2125	 7003.82448257049 
2126	 6962.06335764092 
2127	 6919.62904525411 
2128	 6887.88984025006 
2129	 6853.41501580379 
2130	 6819.77785560507 
2131	 6779.16255956305 
2132	 6721.13530889021 
2133	 6668.1783802438 
2134	 6626.76835780731 
2135	 6590.16551966136 
2136	 6566.88369760132 
2137	 6542.01983991516 
2138	 6518.8652193041 
2139	 6493.47630519057 
2140	 6469.95289231536 
2141	 6444.4812544714 
2142	 6412.26224206627 
2143	 6391.2691924997 
2144	 6375.38656070076 
2145	 6365.70761747349 
2146	 6373.66593645346 
2147	 6382.61515007724 
2148	 6385.97489420303 
2149	 6396.65007545854 
2150	 6399.31155259773 
2151	 6413.80091361314 
2152	 6446.20740858206 
2153	 6468.36863909638 
2154	 6502.26380464324 
2155	 6542.54245133207 
2156	 6574.74349767929 
2157	 6618.9500066808 
2158	 6661.70168767494 
2159	 6708.91898632148 
2160	 6747.61431387863 
2161	 6786.93040381176 
2162	 6820.27661646381 
2163	 6844.12056226174 
2164	 6876.62238155244 
2165	 6910.97582185824 
2166	 6932.72582905748 
2167	 6966.31852130962 
2168	 6996.05458614438 
2169	 7012.61961505015 
2170	 7033.97078732275 
2171	 7046.42233086457 
2172	 7056.20695618883 
2173	 7081.82123131431 
2174	 7115.98966252087 
2175	 7147.97007595567 
2176	 7180.56401665789 
2177	 7208.69886030448 
2178	 7228.2485098335 
2179	 7254.2739500817 
2180	 7291.38472639035 
2181	 7326.29716890267 
2182	 7354.80899632222 
2183	 7376.9548825558 
2184	 7394.28633883723 
2185	 7398.86407715399 
2186	 7394.24631193307 
2187	 7387.2644021669 
2188	 7369.78992408558 
2189	 7353.69826559408 
2190	 7339.32815858689 
2191	 7316.99888486631 
2192	 7288.06413342011 
2193	 7255.72833419718 
2194	 7217.96010715627 
2195	 7175.92221981628 
2196	 7149.80847731016 
2197	 7123.23600402284 
2198	 7095.29810740209 
2199	 7082.77379583378 
2200	 7062.18207027352 
2201	 7044.38709579025 
2202	 7041.61636612354 
2203	 7032.56032130811 
2204	 7034.81353663185 
2205	 7042.23854289823 
2206	 7038.44456505415 
2207	 7045.0157081068 
2208	 7037.47322795333 
2209	 7021.95800211758 
2210	 7014.02843895014 
2211	 7009.20019188491 
2212	 6995.04903436787 
2213	 6986.63530111063 
2214	 6966.50520771444 
2215	 6928.48458269939 
2216	 6901.69942668902 
2217	 6876.30858505948 
2218	 6846.6721160405 
2219	 6820.23142601643 
2220	 6791.68733201488 
2221	 6744.32201091889 
2222	 6711.03790580415 
2223	 6681.86984736194 
2224	 6639.18984300117 
2225	 6613.20183374674 
2226	 6574.7347214993 
2227	 6526.02334405702 
2228	 6488.47215795052 
2229	 6435.16782537364 
2230	 6384.57239675302 
2231	 6331.16837791236 
2232	 6270.45777688178 
2233	 6225.35401697809 
2234	 6176.35000031702 
2235	 6127.76062825205 
2236	 6087.88174623254 
2237	 6048.1185358426 
2238	 6012.71600474784 
2239	 5984.81213838756 
2240	 5955.4574787722 
2241	 5918.8963987081 
2242	 5883.99019828748 
2243	 5849.87470810778 
2244	 5815.80294427367 
2245	 5777.65776497352 
2246	 5741.29389281948 
2247	 5701.4722230007 
2248	 5646.83724597439 
2249	 5613.11940268997 
2250	 5588.83879538334 
2251	 5562.77272966269 
2252	 5552.95153514823 
2253	 5527.29256988775 
2254	 5497.20494400256 
2255	 5463.45071342421 
2256	 5420.09976212685 
2257	 5378.5692193909 
2258	 5341.76583431165 
2259	 5307.29372987487 
2260	 5281.70864031655 
2261	 5268.79027145409 
2262	 5258.00198036708 
2263	 5239.93918074459 
2264	 5215.43771808535 
2265	 5181.49684525901 
2266	 5144.22189621429 
2267	 5100.43300477518 
2268	 5066.69544638181 
2269	 5043.53801861869 
2270	 5006.59288487064 
2271	 4972.54556578963 
2272	 4933.41944991547 
2273	 4886.94533862358 
2274	 4853.21149466262 
2275	 4817.0677563967 
2276	 4783.82432168896 
2277	 4746.82327259689 
2278	 4710.22669703862 
2279	 4678.78206082677 
2280	 4638.0246508775 
2281	 4600.63098208852 
2282	 4555.1161593924 
2283	 4518.38033481571 
2284	 4491.68711310944 
2285	 4462.31299868767 
2286	 4438.96093876836 
2287	 4425.01114621394 
2288	 4396.44754568962 
2289	 4367.28931515834 
2290	 4334.90150453926 
2291	 4292.98029678796 
2292	 4256.20381989943 
2293	 4220.9379291289 
2294	 4183.14863354411 
2295	 4138.85862841783 
2296	 4103.27226152752 
2297	 4072.24652000619 
2298	 4043.7909988256 
2299	 4022.82869485129 
2300	 4003.1000282546 
2301	 3983.83198538788 
2302	 3959.58814066485 
2303	 3937.08098840082 
2304	 3907.3335960454 
2305	 3872.73445034603 
2306	 3842.74336911516 
2307	 3805.85567573272 
2308	 3780.81155715606 
2309	 3765.13286916685 
2310	 3742.89234453754 
2311	 3729.15389354068 
2312	 3716.48337639127 
2313	 3684.42245243612 
2314	 3654.96572189086 
2315	 3621.1015656268 
2316	 3581.73681817862 
2317	 3555.30630725411 
2318	 3530.5304137596 
2319	 3499.01695889348 
2320	 3470.55303503448 
2321	 3444.17002283684 
2322	 3409.50117543435 
2323	 3382.56893532136 
2324	 3355.51247297867 
2325	 3320.00501942053 
2326	 3288.17650719588 
2327	 3259.62930201673 
2328	 3227.02663567618 
2329	 3197.14291260029 
2330	 3169.29839564283 
2331	 3122.75722580772 
2332	 3089.90291504417 
2333	 3061.5963958369 
2334	 3024.45196700658 
2335	 3004.85910584478 
2336	 2972.75928605157 
2337	 2940.99541354139 
2338	 2919.624571436 
2339	 2887.37726323241 
2340	 2853.82025424146 
2341	 2823.88888037506 
2342	 2793.86733887534 
2343	 2761.83629781818 
2344	 2742.03749320531 
2345	 2720.27252824692 
2346	 2692.33253980067 
2347	 2681.92615091191 
2348	 2667.5120471823 
2349	 2643.94168328611 
2350	 2620.31668788273 
2351	 2595.09275030327 
2352	 2576.65594134199 
2353	 2564.73142453553 
2354	 2556.13313633408 
2355	 2536.49237325338 
2356	 2503.36414433921 
2357	 2466.8734158477 
2358	 2431.03637357549 
2359	 2396.42478031481 
2360	 2364.48105273692 
2361	 2341.89849557271 
2362	 2320.39452431014 
2363	 2299.02450455374 
2364	 2286.14958209358 
2365	 2262.9785420268 
2366	 2233.63282843506 
2367	 2215.83000205103 
2368	 2195.72154381462 
2369	 2178.00236402847 
2370	 2163.37542674726 
2371	 2134.80731845035 
2372	 2099.82589916113 
2373	 2072.40651403276 
2374	 2043.65457965026 
2375	 2019.29490569765 
2376	 2003.10359343182 
2377	 1984.68872022717 
2378	 1968.30546809621 
2379	 1955.08230537373 
2380	 1948.74023868375 
2381	 1934.38378548473 
2382	 1915.85442569812 
2383	 1899.07466822511 
2384	 1870.23665686754 
2385	 1837.71718346815 
2386	 1806.57020381787 
2387	 1774.69475454104 
2388	 1749.64972651924 
2389	 1733.05041243366 
2390	 1718.8691395472 
2391	 1714.99388394727 
2392	 1709.0133805125 
2393	 1708.6969488561 
2394	 1712.66073062457 
2395	 1700.61078293228 
2396	 1689.36274100853 
2397	 1668.49399690616 
2398	 1647.38120623948 
2399	 1626.97622142485 
2400	 1592.23941900533 
2401	 1563.72041288163 
2402	 1535.10430778823 
2403	 1513.23893774399 
2404	 1510.13155479696 
2405	 1510.56412395579 
2406	 1513.03714085444 
2407	 1514.3442013035 
2408	 1508.3538720498 
2409	 1494.90785680491 
2410	 1476.91321655003 
2411	 1461.42835156491 
2412	 1449.37963610658 
2413	 1435.46663789027 
2414	 1409.39330671247 
2415	 1381.49135214614 
2416	 1349.7936295785 
2417	 1312.51300966195 
2418	 1297.21601195312 
2419	 1280.80508472252 
2420	 1262.12957980609 
2421	 1256.59458376424 
2422	 1241.69765255259 
2423	 1234.22463101026 
2424	 1230.10871346815 
2425	 1222.97513617324 
2426	 1220.41628627514 
2427	 1214.34072383798 
2428	 1219.89141562498 
2429	 1221.51498310233 
2430	 1206.32158108988 
2431	 1182.1531429756 
2432	 1137.3797918973 
2433	 1098.24893858387 
2434	 1083.75417149038 
2435	 1076.70414126688 
2436	 1084.49668436448 
2437	 1089.73200274248 
2438	 1075.54351114503 
2439	 1061.9803411418 
2440	 1051.23249625533 
2441	 1037.88211070939 
2442	 1028.72939866473 
2443	 1022.0785620538 
2444	 998.567791598096 
2445	 972.731107721759 
2446	 958.866400701934 
2447	 946.918933468584 
2448	 949.077802540906 
2449	 956.106495842948 
2450	 949.485270970262 
2451	 946.220794975016 
2452	 938.539041036236 
2453	 923.04904257521 
2454	 920.384773567093 
2455	 913.834608582153 
2456	 896.598938985822 
2457	 884.491541408982 
2458	 878.491638878544 
2459	 869.344721104543 
2460	 864.623785737637 
2461	 859.911412005745 
2462	 840.200079405796 
2463	 819.001215619954 
2464	 806.354310666267 
2465	 799.748893621335 
2466	 797.273405261397 
2467	 808.306815130805 
2468	 801.319647473621 
2469	 783.551835176971 
2470	 758.755998455925 
2471	 741.271528351859 
2472	 722.399583959872 
2473	 721.000788256265 
2474	 729.321601619198 
2475	 728.995127097656 
2476	 737.557790652668 
2477	 736.457260150205 
2478	 727.327892546744 
2479	 713.510032913659 
2480	 686.318234520257 
2481	 669.315738540106 
2482	 656.25913016729 
2483	 650.220151849483 
2484	 661.571140617963 
2485	 663.997901959814 
2486	 663.952447282883 
2487	 662.261512279168 
2488	 651.133163369358 
2489	 638.506550262392 
2490	 622.466578260177 
2491	 604.501364716556 
2492	 584.573153515774 
2493	 566.953678721433 
2494	 558.651922758403 
2495	 547.443998862232 
2496	 526.388973910894 
2497	 508.265064565776 
2498	 496.455650059934 
2499	 493.676023733906 
2500	 499.849113346529 
