Wavelength	1mm_blackPETG00000.asd
350	 1.43930679924312 
351	 0.917960550915338 
352	-0.233456700837885 
353	-0.21297264610288 
354	 0.595220202988282 
355	 1.12131390970631 
356	 0.533318957593855 
357	-1.30177936138228 
358	-1.26539231354736 
359	 0.532961464697283 
360	 1.23134757108475 
361	-3.48064500407934E-02 
362	-0.146641493675216 
363	 2.83704870032883 
364	 1.61320337050481 
365	-0.251915243800337 
366	-0.68045428959711 
367	 0.274751655467279 
368	 0.79836779444981 
369	 0.590623090861523 
370	 3.65625370555874E-02 
371	 0.115158556821877 
372	-0.361704463172169 
373	-1.53736042638706 
374	-1.13422360265594 
375	-0.70077660674781 
376	-1.31981483257767E-02 
377	 1.70917884204325 
378	 1.83237427713059 
379	 1.00718953596858 
380	 0.123326463784529 
381	-1.09989096700846 
382	-0.911344107348042 
383	 0.285922910944443 
384	 0.208791344999555 
385	-0.692924790675531 
386	-1.02935626087799 
387	-3.73311400575149E-02 
388	-1.6209635954751 
389	-1.67227064191984 
390	 0.422495856391646 
391	-0.530415780771873 
392	-2.48367878739108 
393	-2.95332368374914 
394	 0.101006560385601 
395	 0.573973379373438 
396	-0.407926966850482 
397	-0.920105162121508 
398	 0.702280304076731 
399	 1.6864905954954 
400	 1.45714104933721 
401	 1.1004924924552 
402	 0.931697834723151 
403	 0.66366070142113 
404	 0.226507035001036 
405	 1.64115398268462 
406	 1.96769725188092 
407	 0.454902834722849 
408	-0.174056191677032 
409	-0.12376576782137 
410	-0.154409092808434 
411	-1.13597727448314 
412	-0.901125363322553 
413	 0.163495932538644 
414	 1.07637828986053 
415	 0.101397866808233 
416	-0.660533680675551 
417	-0.607348974521358 
418	-0.411107842201303 
419	 0.736980720546152 
420	 1.67812006294668 
421	 1.23124544051529 
422	 1.33673200377685 
423	 0.973425145154236 
424	-0.316519571895661 
425	-1.89519102847894 
426	-1.46826718248001 
427	-8.68161527587991E-02 
428	-0.53487632988165 
429	 0.5648520119202 
430	 1.11565055584416 
431	-0.492158776531171 
432	-0.422029058802083 
433	 9.67811867251046E-02 
434	 0.268306721846729 
435	-0.116414319611568 
436	-0.563833172765322 
437	-0.440520222965147 
438	 0.60757296445173 
439	-0.221789627222568 
440	-0.630571480054675 
441	 0.520126786530289 
442	-0.651480143149181 
443	-1.27396848913944 
444	-0.673139870703276 
445	-4.83391794050893E-02 
446	-0.397024437224474 
447	-0.824634976680379 
448	-0.249762916956521 
449	-0.786916669205596 
450	-0.357204072220268 
451	 1.27372048946402 
452	-0.738202996256388 
453	-0.528858336541431 
454	 1.04145839375528 
455	-1.18374127711358 
456	-1.81221240293248 
457	-1.55858065722014 
458	-1.87806057710594 
459	-0.380737942179569 
460	 0.674215436169501 
461	 0.211273334689913 
462	-0.645470986893839 
463	-0.75178851922191 
464	-0.489824290034001 
465	-1.05194686054255 
466	-0.227045827127538 
467	 0.537566502464291 
468	-0.176636426343858 
469	-0.703404277103545 
470	-0.993130206931769 
471	-1.11408795260953 
472	-1.27158243904733 
473	-0.878352416010831 
474	-0.328347846484063 
475	-0.439961091894963 
476	-0.74343905191412 
477	-0.711418356434445 
478	-0.147258645031465 
479	 6.68598655775366E-03 
480	-0.372149414997996 
481	-0.868222024716098 
482	-0.212874034918933 
483	-0.263027818579828 
484	-1.14088056043928 
485	-2.14067298335037 
486	-2.32663721366038 
487	-1.29165664028104 
488	 0.455431746027607 
489	-0.230159316903144 
490	-1.13343599417088 
491	-1.56169325962487 
492	-2.91204416933918 
493	-2.87882585077362 
494	-1.48640035984323 
495	 0.122469985043451 
496	 0.548919307763104 
497	-0.520160368535269 
498	-2.3118414875741 
499	-1.12301844086791 
500	-0.413218932450519 
501	-1.2202316703309 
502	-1.59346709276739 
503	-0.748391320282458 
504	 9.38750184292544E-03 
505	-1.33570854680624 
506	-2.30601056774958 
507	-2.20385650732749 
508	-1.24471645244962 
509	-1.82187343533724 
510	-1.20081736116114 
511	 0.567710995890846 
512	-0.422873715297664 
513	-1.61809773993092 
514	-2.33935858060444 
515	-2.6422756341238 
516	-3.46502178946305 
517	-3.20576548617898 
518	-1.13884533461559 
519	-1.07020516440629 
520	-1.60220276626467 
521	-2.0273290572183 
522	-2.76856876280781 
523	-2.84042729189216 
524	-2.10643776615446 
525	-1.01359755971561 
526	-2.02778738275789 
527	-3.18304630880115 
528	-2.61670142344076 
529	-2.2775138041034 
530	-2.36353994090112 
531	-2.56434729323131 
532	-1.77904069690349 
533	-0.537265144502976 
534	 0.190378808047369 
535	-0.815087731238809 
536	-2.44576474728815 
537	-2.69749590108513 
538	-0.706450570522141 
539	-1.46269786050467 
540	-2.04816856611066 
541	-1.17258753858457 
542	-0.960230205667513 
543	-1.23213395814321 
544	-1.9820637825513 
545	-3.10189983909167 
546	-1.97438599823754 
547	-0.62431588689379 
548	-1.50600309330239 
549	-2.94105813344679 
550	-3.13599108810481 
551	-1.76027955070247 
552	-1.49978571247794 
553	-0.672848479762043 
554	 2.04493433122823E-02 
555	-1.8106007136421 
556	-2.36106226392736 
557	-1.93500045144592 
558	-1.91125057429171 
559	-2.5014639337719 
560	-2.13105624028507 
561	-0.474961370591451 
562	-0.659514389304558 
563	-1.40032704127443 
564	-1.84123729189606 
565	-1.32197646300196 
566	-0.791024587340676 
567	-0.463861319381691 
568	-0.351102946666796 
569	-0.894649658604441 
570	-1.21997300658206 
571	-1.01486086992638 
572	-2.29638216028048 
573	-2.77198571984169 
574	-1.99530987770544 
575	-1.68664279129323 
576	-0.892148264982728 
577	-0.357136631320071 
578	-1.33211545514655 
579	-2.60665230588514 
580	-3.24828005450855 
581	-2.8465952695321 
582	-2.60539030250915 
583	-2.1148445444678 
584	-1.60779382979715 
585	-2.62926396043998 
586	-2.28425247143499 
587	-1.14957606798722 
588	-1.53536450911345 
589	-1.89192511799934 
590	-1.86861281101842 
591	-1.56465079124986 
592	-2.02480905845538 
593	-2.93356794026228 
594	-3.49935260548802 
595	-1.63230518759154 
596	-1.76345113541371 
597	-3.20139517798717 
598	-1.80334660241506 
599	-1.20384615099975 
600	-1.60366831107588 
601	-2.24800929449014 
602	-2.37161180678378 
603	-1.75099375401532 
604	-0.883602842752109 
605	-2.06140378666426 
606	-2.52553480207514 
607	-2.07400961653611 
608	-2.77066225524417 
609	-3.67975268440582 
610	-3.57747610821572 
611	-1.52036144813539 
612	-0.283317616335852 
613	-0.344699012241902 
614	-1.33919425508305 
615	-1.41040917585853 
616	-2.06835929563864 
617	-2.89726891415896 
618	-0.863862893689809 
619	-5.15387841347004E-02 
620	-0.669252920373727 
621	-1.3262151747164 
622	-2.31967490948584 
623	-2.90590847396853 
624	-2.58358973024465 
625	-2.13462019038033 
626	-2.39860628186778 
627	-3.21886368555128 
628	-2.68986344710448 
629	-2.62076288003639 
630	-3.11935201272739 
631	-3.41459593010725 
632	-2.93252620316187 
633	-2.19919557420988 
634	-2.02505965216856 
635	-3.3349997142232 
636	-3.73106503581557 
637	-2.5087243961805 
638	-2.78988359870767 
639	-2.74269001849044 
640	-1.85996998483476 
641	-0.448362658663183 
642	-0.297263850294903 
643	-0.940153107160251 
644	-1.38283878160162 
645	-2.41883648060176 
646	-2.83915595136509 
647	-2.04812003627197 
648	-1.07887861305309 
649	-1.85239648779544 
650	-3.32002017740776 
651	-1.19928221308466 
652	-2.62786538806881 
653	-4.82452389251179 
654	-2.39126829885926 
655	-1.29353778790774 
656	-1.33519565870089 
657	-1.60880138388202 
658	-1.72776053861949 
659	-2.08430763272617 
660	-2.41838226725503 
661	-1.49016291124044 
662	-1.21629819497779 
663	-1.62123831804281 
664	-1.91777074761591 
665	-2.29590046846137 
666	-2.26555799759258 
667	-1.84783863829668 
668	-3.7514383698867 
669	-4.02454728336835 
670	-2.13169649299486 
671	-3.65764349757275 
672	-3.3367525686623 
673	-1.72769071858261 
674	-2.23853655937144 
675	-1.73733975550907 
676	-1.33896503319629 
677	-2.14222696839139 
678	-0.362316064054229 
679	 1.68352403517001E-02 
680	-2.1020209743174 
681	-1.3453062850574 
682	-0.851198222992946 
683	-1.83715694456654 
684	-4.4517918083536 
685	-4.22557273447518 
686	-2.43952500834532 
687	-1.62055166645568 
688	-0.975706861417585 
689	-1.34995342979945 
690	-2.63476681839446 
691	-2.16817489644601 
692	-2.38339713130815 
693	-3.42547336761192 
694	-3.62743852380382 
695	-2.87128882432507 
696	-1.70577764237182 
697	-1.03850895819973 
698	-1.99288737718894 
699	-3.60610539042242 
700	-4.46343168977814 
701	-2.06054564820633 
702	-1.16692355399799 
703	-2.29987085850438 
704	-1.79249184470522 
705	-2.03250561152201 
706	-2.95003884813335 
707	-3.69434445456068 
708	-4.14446056818687 
709	-2.94511721467506 
710	-0.368106993562011 
711	-2.07693965887175 
712	-3.03576085238781 
713	-2.07865661497371 
714	-2.33337680255126 
715	-2.34816034928701 
716	-2.23130304463857 
717	-2.53117771288836 
718	-2.78894355744014 
719	-3.05254711840647 
720	-3.17536788464913 
721	-1.88708422726335 
722	-1.76998820495436 
723	-2.75325838377884 
724	-1.19909614838468 
725	-1.53091553753093 
726	-2.98905733160223 
727	-2.91183853686378 
728	-3.20522721011304 
729	-3.32720830983071 
730	-2.59194481213397 
731	-0.714626986991223 
732	-0.313704831319795 
733	-1.66811179430879 
734	-1.94957302451236 
735	-2.06282304760048 
736	-2.10222288955314 
737	-1.98483919076625 
738	-2.13303785841704 
739	-2.75546988368713 
740	-3.56973770814782 
741	-2.66621987525611 
742	-1.88277776335337 
743	-1.97694954340118 
744	-2.3095969614329 
745	-2.49741858368727 
746	-2.25870344159639 
747	-1.52848702844125 
748	-1.80966993450338 
749	-2.31593733901992 
750	-2.16121388334545 
751	-1.44712902634273 
752	-0.517871483577865 
753	 3.30398832214105E-02 
754	-0.850393239147822 
755	-1.40781191846562 
756	-2.06783552517455 
757	-3.83513467059176 
758	-3.45759252135035 
759	-2.61516720112996 
760	-2.76140536186138 
761	-2.00027121713602 
762	-1.74770436831225 
763	-2.05524701546569 
764	-1.26691360972304 
765	-1.36032233194416 
766	-2.38696766677189 
767	-3.42086321613157 
768	-1.61677095978749 
769	-0.334031268296787 
770	-1.81137271251849 
771	-2.90891756484702 
772	-2.970219932224 
773	-2.30731836290651 
774	-2.31082185582527 
775	-2.20822688956537 
776	-2.14415113909722 
777	-2.41068948336788 
778	-2.23783910422957 
779	-2.34522869109498 
780	-2.93215789202511 
781	-2.44679984176565 
782	-2.15483842985798 
783	-2.12446484256293 
784	-1.47531601347369 
785	-2.20050370372754 
786	-2.76949860646924 
787	-1.38542120718258 
788	-0.726450735299746 
789	-1.85061818708754 
790	-3.9398329673245 
791	-2.27663580842934 
792	-1.46011221148022 
793	-2.07752030498217 
794	-2.3592912218342 
795	-2.65537343930554 
796	-2.95170999450672 
797	-2.93511812278386 
798	-0.756339220911416 
799	-0.523175767029007 
800	-2.78237366630566 
801	-2.0316396867092 
802	-2.71765711661229 
803	-3.70321891092763 
804	-1.88601201117872 
805	-1.93552800095858 
806	-2.56856275787547 
807	-2.39011311619352 
808	-2.93995453468097 
809	-2.75375398435765 
810	-1.83242676235334 
811	-1.78172844195964 
812	-1.79494283516231 
813	-1.70858023297919 
814	-1.62074629829787 
815	-2.3068621887657 
816	-2.65971611056308 
817	-2.04450917169482 
818	-1.05282901137496 
819	-0.967016758756574 
820	-1.36967022250595 
821	-0.697834624509176 
822	-0.997855958454945 
823	-1.73825096447269 
824	-1.97400930271153 
825	-1.5402486236257 
826	-1.35171892076677 
827	-1.62436813136935 
828	-1.44792099299695 
829	-2.51576614201918 
830	-3.6408865884885 
831	-2.82236394813654 
832	-2.83309940513339 
833	-2.70038451701 
834	-1.75714772653458 
835	-1.39362912052987 
836	-1.22201068674332 
837	-1.20511528722238 
838	-1.54339526620408 
839	-1.81893370733899 
840	-2.2730111006664 
841	-3.05201636172664 
842	-3.21183427948781 
843	-2.00674079294887 
844	-0.355135016859404 
845	-1.94408189258834 
846	-2.7508322118238 
847	-2.38932405842458 
848	-1.94120172528302 
849	-1.63585403061351 
850	-1.50646377362933 
851	-1.53192817753384 
852	-1.77126395796273 
853	-1.46086118162216 
854	-1.26576494814026 
855	-2.81297715926042 
856	-2.39360317122489 
857	-1.77988431239047 
858	-2.70700287751517 
859	-1.0336523042868 
860	-0.866313899163881 
861	-2.82729485360796 
862	-2.83971560709154 
863	-2.8955113079722 
864	-2.96123062882029 
865	-2.51146401809952 
866	-1.85666315414133 
867	-1.43808153466781 
868	-1.6005373197866 
869	-2.7614920326409 
870	-2.58014264226538 
871	-1.84923560222446 
872	-2.85434663514518 
873	-3.93979597280181 
874	-3.43664445217957 
875	-1.4108425692768 
876	-3.07598205180911 
877	-3.41114414085439 
878	-1.72762867920849 
879	-0.793931788055324 
880	-0.580810421620609 
881	-0.908421307580179 
882	-1.51572413586661 
883	-2.54240653208387 
884	-2.67079888746947 
885	-1.64815953043004 
886	-0.433719432920608 
887	-1.42547859964617 
888	-2.44384757112564 
889	-1.05730855559967 
890	-2.59738730271594 
891	-3.52809611563802 
892	-2.34068082770135 
893	-1.38421183060666 
894	-1.91714969916563 
895	-2.55974955091156 
896	-1.38449986561785 
897	-2.15030424780703 
898	-2.95495715701921 
899	-2.62877903912583 
900	-2.63014107708538 
901	-1.79097409602428 
902	-1.15262722145301 
903	-2.4331462888798 
904	-2.5890170125692 
905	-2.68209414771216 
906	-3.42417134062053 
907	-3.4237117245955 
908	-2.51148284832914 
909	-1.66334974754385 
910	-2.34120608186824 
911	-1.63647622760634 
912	-0.901960351128062 
913	-1.4252019171815 
914	-2.66996755441071 
915	-2.75823246654701 
916	-1.59625381441767 
917	-0.478334702497914 
918	-1.46872594710039 
919	-2.91087035610297 
920	-3.05824617374607 
921	-1.86312730944831 
922	-1.53618897730406 
923	-2.28439637709239 
924	-2.72132484805122 
925	-1.01784917870199 
926	-0.170651774517427 
927	-2.01990731609789 
928	-2.0649012940132 
929	-1.87574633347723 
930	-1.99084237717669 
931	-2.20198745248233 
932	-2.24041334236911 
933	-2.41067211259585 
934	-2.76859390995446 
935	-2.18206882842553 
936	-2.2623340146944 
937	-2.50529157688955 
938	-1.03726930827944 
939	 0.284439046655009 
940	 4.02449626254801E-02 
941	-1.8957182830975 
942	-2.56904016412019 
943	-2.22692611267344 
944	-1.87247839392776 
945	-2.79138416372046 
946	-1.63727125690236 
947	-1.06595298752761 
948	-2.56932776372674 
949	-2.55587672528629 
950	-1.09601668032785 
951	-2.00276075480056E-02 
952	-1.67750161156447 
953	-1.58779121674405 
954	-1.30250697315767 
955	-1.82707874132431 
956	-1.21524634214652 
957	-1.35169529306787 
958	-2.08553582982564 
959	-2.4103120403359 
960	-1.89638652891192 
961	-1.8255821484095 
962	-2.37135980308072 
963	-1.57804619178405 
964	-1.71245971861615 
965	-2.07298023301641 
966	 13.712164743844 
967	 10.2155528187612 
968	 4.22942187706812 
969	 2.35218418377114 
970	 0.361165610965466 
971	-1.00767464161846 
972	 1.60728502631405 
973	 1.89919942410717 
974	-0.604078308361258 
975	-1.38882317986327 
976	-1.34864110827401 
977	-0.649994106046586 
978	 0.144683688519853 
979	 0.80569794087853 
980	 0.293294392526267 
981	-2.55887608021016 
982	-3.72756220178076 
983	-2.37007509233078 
984	-2.34110228094432 
985	-1.64760240973978 
986	-1.09928726073246 
987	-2.58404059753264 
988	-3.15166226974895 
989	-2.29223228769154 
990	-1.44132195723774 
991	-1.16454031634175 
992	-0.236947861097943 
993	 1.54692482500128 
994	 4.26727742607854 
995	 3.54784511896217 
996	 1.68646754702797 
997	 2.69615354747328 
998	 1.82694434612488 
999	 3.90997631478164 
1000	 6.12713499802685 
1001	 0.955854003804898 
1002	-0.795373213001578 
1003	 0.138047577384734 
1004	-0.904929089449617 
1005	-1.84542932871969 
1006	-0.529621553396455 
1007	-1.65082600703135 
1008	-6.44587701535796 
1009	-7.40957314233116 
1010	-5.61107331810474 
1011	-1.10206593860798 
1012	 1.98111609469223 
1013	 2.60791900497246 
1014	 1.97252935084981 
1015	-0.322194131694882 
1016	 1.51064236896354 
1017	 2.27566328327663 
1018	 1.74564985279616 
1019	 3.63339278391299 
1020	 1.73037816272119 
1021	 1.73785919677001 
1022	 5.54093308669028 
1023	 5.85811802050994 
1024	 4.19336218737604 
1025	 3.18037213412462 
1026	 1.07033783889819 
1027	-3.00868994912791 
1028	-0.862456866618928 
1029	-0.186423691285324 
1030	 0.443595135429139 
1031	 2.36622945632793 
1032	 0.749032532533069 
1033	 3.11116809671333 
1034	 4.76360502034264 
1035	 4.84542785461763 
1036	 5.20415585757453 
1037	 1.96537974128443 
1038	-2.196571040343 
1039	-3.18726663521208 
1040	-3.03347327386669 
1041	-1.48157629103756 
1042	-1.02943825385951 
1043	 0.744736073190661 
1044	 3.33704690060575 
1045	 0.816221249385328 
1046	 0.361036738165561 
1047	 2.22886728707225 
1048	-5.84928128749069E-03 
1049	-1.68700944582665 
1050	 0.135269111456652 
1051	 1.35519656744139 
1052	 1.60857356717393 
1053	 3.38610305307424 
1054	 4.0316438396007 
1055	 4.17987259024176 
1056	 2.44101287324717 
1057	 0.420722207347808 
1058	-2.95175345411312 
1059	-3.67100672265824 
1060	-4.69894669861604 
1061	-4.17646872165552 
1062	-0.4605406871744 
1063	 0.8490567379793 
1064	 1.70950287663258 
1065	 2.75877934475873 
1066	 2.18094959143876 
1067	 0.740088677478372 
1068	-1.97914046242284 
1069	-4.8982049930258 
1070	-3.95714977505586 
1071	-1.00162264431543 
1072	 0.844975196554435 
1073	 2.48082080410749 
1074	 2.41782511278951 
1075	-2.94008424152716 
1076	-2.07562331997483 
1077	 3.51019763761882 
1078	 3.91409183440113 
1079	 5.1183754776917 
1080	 5.6933591260108 
1081	 1.0574543073157 
1082	-0.297453511442293 
1083	 1.97569923596812 
1084	 1.39917288089305 
1085	 0.35028034338231 
1086	 1.75507504774586 
1087	 3.74445095670694 
1088	 4.20113247145546 
1089	 1.53545533125578 
1090	-1.01596918823012 
1091	-3.09273449335396 
1092	-7.46597208124041 
1093	-9.01498040505597 
1094	-8.22542621741223 
1095	-8.15410853537048 
1096	-7.54999533285583 
1097	-7.01798025047403 
1098	-6.47122234075339 
1099	-5.8329043799434 
1100	-5.17787085779965 
1101	-4.4110585486231 
1102	-4.08424162647626 
1103	-1.79186856797171 
1104	 3.11357348090169 
1105	 5.41400265820223 
1106	 7.39829746613492 
1107	 7.20503870142831 
1108	 3.32081565407135 
1109	 1.68542166928251 
1110	 1.16964022819568 
1111	 2.40982266306706 
1112	 2.52433032408152 
1113	 3.48681530691723 
1114	 3.26478145487306 
1115	 1.4379989804301 
1116	 1.84007457216291 
1117	 3.46220883982012 
1118	 4.09072455047213 
1119	 5.10479886018351 
1120	 6.08566502471148 
1121	 7.09133139867624 
1122	 7.03045615625445 
1123	 7.70305611142187 
1124	 6.85993506677184 
1125	 3.34373259383913 
1126	 0.94296017093931 
1127	-1.80499009321732 
1128	-5.59090693121134 
1129	-7.08538757152246 
1130	-8.00529653582086 
1131	-7.94834937174748 
1132	-6.5342973433466 
1133	-4.62654915683523 
1134	-0.105104925403549 
1135	 0.390516498565505 
1136	-0.548662223962686 
1137	-0.768390994937124 
1138	-4.84578948953866 
1139	-4.93686498995445 
1140	 0.472025623367927 
1141	 0.8954238941751 
1142	-1.39807461689622 
1143	-1.49149252290715 
1144	-2.96900591815368 
1145	-4.05181249757889 
1146	-2.47371401618665 
1147	-1.90116032634719 
1148	-1.97668629272479 
1149	-3.90074311344152 
1150	-4.17727110902005 
1151	-3.319538266748 
1152	-4.112619151622 
1153	-5.9037152034378 
1154	-6.61616951297335 
1155	-7.26141957529345 
1156	-8.25746683058002 
1157	-10.4237793686936 
1158	-9.1779148333205 
1159	-5.93571906333089 
1160	-4.33921787693832 
1161	-0.118311632330778 
1162	 2.05858208016589 
1163	 2.41614003647502 
1164	 1.8402458118001 
1165	-0.249017424334599 
1166	-1.06154018710376 
1167	-1.79139737122473 
1168	-4.77412092115802 
1169	-5.06378163937674 
1170	-3.81974539001179 
1171	-3.08514872467898 
1172	-2.86078837065385 
1173	-0.600979963325028 
1174	 3.86276222666478 
1175	 5.45582092270898 
1176	 6.17603881111445 
1177	 8.80097311953574 
1178	 11.760455727568 
1179	 12.6836859983236 
1180	 15.7077613957641 
1181	 15.0172824871538 
1182	 8.60936883481819 
1183	 5.93108572142654 
1184	 3.63080793413202 
1185	 2.11042823933958 
1186	 2.16851332399321 
1187	 2.13281643200636 
1188	 3.08343658648293 
1189	 2.83659218181259 
1190	 2.71538457081541 
1191	 0.786731280693028 
1192	-0.141760619128556 
1193	-0.269785026298833 
1194	-2.26168865655631 
1195	-1.26297775559533 
1196	 6.10542998418421E-02 
1197	 1.88854605663781 
1198	 2.81328301060786 
1199	 5.70151435668264 
1200	 5.14606662143892 
1201	 1.39954143438824 
1202	-0.140251819256864 
1203	-2.42622102468015 
1204	-2.54171608849951 
1205	-1.39506310473136 
1206	 4.53360302611475E-02 
1207	 3.71822839078187 
1208	 5.18494820441803 
1209	 7.57903403992461 
1210	 7.01309588453683 
1211	 2.81524892304128 
1212	 0.118755800340369 
1213	-1.49557856716916 
1214	-4.01582226033383 
1215	-1.48115571382034 
1216	 1.25470016088354 
1217	 0.11725914137068 
1218	 0.576100238500647 
1219	 0.542984216240712 
1220	 1.61656916947167 
1221	 3.23636611082213 
1222	 7.42897138242306 
1223	 9.28873847484802 
1224	 10.45634942947 
1225	 10.161094470891 
1226	 8.39482036719346 
1227	 7.68752490978179 
1228	 6.41799523930703 
1229	 5.63605560375785 
1230	 5.87099165333049 
1231	 5.42820755778294 
1232	 3.78647178529524 
1233	 2.92254484701832 
1234	 2.43390761609493 
1235	 1.88244400672087 
1236	 1.07763006335264 
1237	 1.87444418785228 
1238	 2.30345104680385 
1239	 2.71786740449361 
1240	 4.90494816944591 
1241	 6.33504509621922 
1242	 4.82961495947593 
1243	 4.23573240017185 
1244	 1.8157195622848 
1245	-0.578788735440473 
1246	-4.93872438962712E-02 
1247	 0.615930245920879 
1248	 2.45696956440088 
1249	 3.2065697786237 
1250	 2.74230009861297 
1251	 0.752280166492781 
1252	 8.55969012591642E-02 
1253	-1.73506653813994 
1254	-2.36506329159007 
1255	-1.16291914172878 
1256	-1.67892226642052 
1257	-2.81535358891269 
1258	-2.67410608881259 
1259	-3.19867985084042 
1260	-2.56993559284652 
1261	 6.88594120133615E-02 
1262	 1.02485753462755 
1263	 0.798903297603048 
1264	 0.509263946098257 
1265	-1.90278467461548 
1266	-4.87670551000322 
1267	-4.40416464300752 
1268	-2.1400483237206 
1269	 0.228905465355319 
1270	 4.12724106116839 
1271	 6.29615448288925 
1272	 4.57313076785728 
1273	 4.18388702604989 
1274	 3.74498064298387 
1275	 1.67080005570897 
1276	 0.324482873946407 
1277	 1.76465373966173 
1278	 4.41834274040733 
1279	 4.56852079521103 
1280	 4.361966156765 
1281	 5.51887398923722 
1282	 5.17485987483947 
1283	 4.85210892523896 
1284	 6.49968288584857 
1285	 6.67907640644658 
1286	 5.07481936966042 
1287	 3.95315399595359 
1288	 2.83911808068657 
1289	 2.4302574371782 
1290	 2.06143825333958 
1291	 1.23710386626407 
1292	 1.25048086102446 
1293	 3.07777590943018 
1294	 4.44408644061082 
1295	 3.42376838073796 
1296	 3.09362764331128 
1297	 3.07861941389866 
1298	 3.25468178059983 
1299	 3.24346097935073 
1300	 3.8672631157851 
1301	 8.51204672296164 
1302	 9.92466141794859 
1303	 9.76842220307302 
1304	 9.02487580043728 
1305	 2.22540367374475 
1306	-0.60694494906214 
1307	 0.125300601142427 
1308	 1.78493949396424 
1309	 6.370758842389 
1310	 4.51130594933543 
1311	 1.6590565999976 
1312	 0.634056311925909 
1313	-2.90256968488962 
1314	-3.14761962826221 
1315	 0.888986396037429 
1316	 3.04949983440192 
1317	 6.20498950091467 
1318	 7.1981922179131 
1319	 7.16449142918361 
1320	 7.56454924302981 
1321	 4.53545307339127 
1322	 3.02696812251721 
1323	 4.69277694715791 
1324	 2.9349110208641 
1325	 3.48458423234265 
1326	 5.91559430539281 
1327	 5.78947344040789 
1328	 7.67561296451371 
1329	 8.13618550715487 
1330	 7.17466618555244 
1331	 5.90457457330522 
1332	 3.080928940512 
1333	 2.45273122261441 
1334	 1.0061611663009 
1335	 0.250343899915709 
1336	 2.19197031519246 
1337	 3.22173393207401 
1338	 5.23168954278717 
1339	 7.19667709542671 
1340	 5.09978731173257 
1341	 1.96358792305788 
1342	 1.8848735460476 
1343	 1.38052533140793 
1344	 2.0583160594768 
1345	 3.86076976943766 
1346	 2.75163562417823 
1347	 3.6087489052387 
1348	 5.65497394868912 
1349	 6.68529646462076 
1350	 8.14502910100218 
1351	 9.16558131937078 
1352	 9.65345509475765 
1353	 9.69667630180161 
1354	 9.08138628766379 
1355	 10.078981310424 
1356	 10.9798724947887 
1357	 9.82231475031284 
1358	 8.38214881254478 
1359	 7.93691371293514 
1360	 6.86115391891735 
1361	 3.59747376399721 
1362	 0.803934195893357 
1363	-0.957568911785015 
1364	-1.13320658562905 
1365	 3.21396796919976E-02 
1366	 1.15473348168124 
1367	 2.33906851465437 
1368	 2.60374539628432 
1369	 2.31205923394274 
1370	 1.63660617167381 
1371	 0.575640251108733 
1372	 1.07243566242696 
1373	 1.93585571475099 
1374	 4.50872848126601 
1375	 6.6322182126854 
1376	 4.13902101330172 
1377	 0.339253018455477 
1378	-4.01682581625199 
1379	-5.28083375484024 
1380	-2.97931462221948 
1381	-0.973543549737933 
1382	 1.75843710276259 
1383	 2.8202782998403 
1384	 3.36515929704741 
1385	 3.54128717757321 
1386	 3.93281597948639 
1387	 5.4471476640285 
1388	 3.7260760346839 
1389	 4.2500690301466 
1390	 4.91031963140261 
1391	 4.85203992343029 
1392	 5.60855342185782 
1393	 7.36847499076939 
1394	 6.95793130615083 
1395	 5.56883174241418 
1396	 6.47810546744005 
1397	 5.43625551460344 
1398	 6.82160000518009 
1399	 7.99129088203981 
1400	 5.26088143329978 
1401	 2.95726723908047 
1402	 2.88197587196137 
1403	 4.16559506563966 
1404	 4.6516109522058 
1405	 2.79904323483433 
1406	 0.988635788091982 
1407	-1.67204766112802 
1408	-1.65028437999747 
1409	 1.56692749946047 
1410	 2.99080449675727 
1411	 4.5082185501423 
1412	 5.93572856849921 
1413	 7.17206441349744 
1414	 8.81425901973105 
1415	 7.792233805813 
1416	 7.27640398102216 
1417	 6.41605390606858 
1418	 6.46613830759786 
1419	 10.6795553391152 
1420	 9.84914327982891 
1421	 9.40423915481262 
1422	 10.6435759500313 
1423	 9.17227676527694 
1424	 10.5567676597121 
1425	 10.9008834049412 
1426	 10.9191899461242 
1427	 10.5196189133472 
1428	 10.519858840552 
1429	 11.297135741921 
1430	 8.03718120383235 
1431	 6.39080788629695 
1432	 5.67122993826884 
1433	 4.35505667830248 
1434	 5.66200063649978 
1435	 6.2446927101455 
1436	 6.39213953241843 
1437	 5.91481307257408 
1438	 3.87955201383178 
1439	 1.62843887557149 
1440	-0.949741674665939 
1441	-1.7758196192487 
1442	-1.01152081535027 
1443	 0.237845790772616 
1444	 3.14291773980582 
1445	 5.5599302677441 
1446	 8.45310236367389 
1447	 10.2721579003268 
1448	 11.7612697770085 
1449	 11.0641220961598 
1450	 7.79011357432881 
1451	 5.65896611806869 
1452	 2.25205991003607 
1453	 2.59681249930549 
1454	 3.45095243072844 
1455	 7.35793118613429 
1456	 9.91179978931197 
1457	 9.41873079367195 
1458	 7.5276776382562 
1459	 4.66323410919099 
1460	 3.42364337809791 
1461	 2.31470771791994 
1462	 2.79508427584751 
1463	 3.40495410940597 
1464	 2.57304186830073 
1465	 4.8711147348453 
1466	 7.50297506594415 
1467	 7.98084547059897 
1468	 8.18566355064348 
1469	 7.86736467570321 
1470	 6.80271735878508 
1471	 5.58133729670568 
1472	 5.67928894830758 
1473	 6.69833862575545 
1474	 8.28950472357309 
1475	 11.2935970362367 
1476	 11.9125334021835 
1477	 7.66948651369933 
1478	 5.85923755729649 
1479	 5.08294823880895 
1480	 2.81529019437795 
1481	 4.88595952273183 
1482	 5.27323484514421 
1483	 1.0804021357727 
1484	 0.37199277864226 
1485	-0.216641722321259 
1486	-4.0427242523926 
1487	-3.30788238793143 
1488	-1.75651196024464 
1489	-1.46145546366692 
1490	 2.79690686765314 
1491	 5.7312480342207 
1492	 7.68092828220399 
1493	 12.086392951423 
1494	 15.0630807643666 
1495	 15.5435360233623 
1496	 15.5790673202423 
1497	 13.5331147981068 
1498	 11.4681933916755 
1499	 11.6905537239861 
1500	 10.0608607821337 
1501	 9.61901391785282 
1502	 9.39997524507541 
1503	 6.63880153851284 
1504	 7.85896879948738 
1505	 10.0826124818032 
1506	 10.1026321021041 
1507	 12.6544203352482 
1508	 13.2954540350446 
1509	 10.5158181524432 
1510	 9.9185883829047 
1511	 9.47713309134432 
1512	 8.79309004804595 
1513	 9.17021985893314 
1514	 7.7327780199281 
1515	 4.43816865186572 
1516	 4.70158174945998 
1517	 7.18808374779216 
1518	 8.60653413631222 
1519	 12.6904587796981 
1520	 14.0978667388083 
1521	 10.9759434809779 
1522	 9.25584007598751 
1523	 5.71483359696706 
1524	 1.08439172891644 
1525	-1.31940689415522 
1526	-3.09541853410193 
1527	-2.5586564176621 
1528	 0.383102151212714 
1529	 3.95405283159912 
1530	 7.67772571155328 
1531	 11.0663095590361 
1532	 13.4324765907767 
1533	 12.6943971367056 
1534	 9.21809714942422 
1535	 4.42680405193577 
1536	 1.1932155811862 
1537	 1.23535179327166 
1538	 2.38160086681822 
1539	 5.78593794121305 
1540	 7.59281069484988 
1541	 5.36300164641861 
1542	 2.50747219465821 
1543	 6.70216299130659E-02 
1544	-1.06768466165141E-02 
1545	 1.22627881034089 
1546	 4.334643538662 
1547	 6.26205536323166 
1548	 6.50850729184306 
1549	 8.85079973519735 
1550	 10.6671386237593 
1551	 12.9360964658262 
1552	 12.6232805462937 
1553	 10.770625480092 
1554	 10.8729028914648 
1555	 9.88721686150441 
1556	 10.0141945486335 
1557	 8.98619880451974 
1558	 7.64792062910898 
1559	 9.21721668142475 
1560	 9.80031361681111 
1561	 9.30754002380609 
1562	 8.02513332524575 
1563	 5.88918903317224 
1564	 3.41336384090384 
1565	 3.21224351630021 
1566	 6.55904502716982 
1567	 8.2235706785967 
1568	 7.9166371699325 
1569	 8.39568202737076 
1570	 5.83426041198476 
1571	 1.4524940756166 
1572	 0.787854572894843 
1573	 1.17340735098128 
1574	 4.09666899014534 
1575	 9.79560081123994 
1576	 12.8939057174183 
1577	 13.9161350772465 
1578	 11.9291562778243 
1579	 9.28740715873719 
1580	 8.47393284669367 
1581	 7.46370907181079 
1582	 7.50188521516054 
1583	 8.0130416965551 
1584	 6.03001941566808 
1585	 4.5098158673238 
1586	 6.28036612085472 
1587	 6.05514365603589 
1588	 5.64203355913849 
1589	 7.4692529946006 
1590	 7.6514725056411 
1591	 6.89263564648922 
1592	 7.8313169739689 
1593	 9.86697688770752 
1594	 10.0410460511191 
1595	 11.136266357757 
1596	 10.7467274358417 
1597	 6.19836102437782 
1598	 3.62785565881205 
1599	 0.692286190307055 
1600	 0.293987478195555 
1601	 3.75049665704443 
1602	 5.29899234225176 
1603	 7.91336147668328 
1604	 8.37336442437529 
1605	 7.44446817399993 
1606	 5.59395547775339 
1607	 2.11371879937233 
1608	 2.11898287697827 
1609	 1.65456369630662 
1610	 2.72841215980763 
1611	 5.32039624712326 
1612	 4.24683829525241 
1613	 4.26387496244813 
1614	 4.13123046417518 
1615	 4.64322780254739 
1616	 6.99327871238348 
1617	 5.59790339751814 
1618	 3.72994105647178 
1619	 1.77026618003839 
1620	-0.124706135001627 
1621	-1.15914756877736 
1622	-1.48521768795808 
1623	-0.661991030633831 
1624	-0.655936398792421 
1625	 1.3471158324385 
1626	 1.94504729806776 
1627	 2.16016626285609 
1628	 2.22389810025865 
1629	-0.52061240215009 
1630	 1.21299468451934 
1631	 2.17635619601807 
1632	 1.85680654567281 
1633	 4.41312527145881 
1634	 2.71929389947335 
1635	 2.87031509231798 
1636	 4.43331506420731 
1637	 5.03657259075911 
1638	 5.68265788370263 
1639	 6.75541961150154 
1640	 8.23327063726135 
1641	 8.65211893809243 
1642	 8.21386438079941 
1643	 9.42721659479747 
1644	 10.6717257261487 
1645	 10.9665198978194 
1646	 13.5662738027484 
1647	 13.283537135721 
1648	 9.6298199722068 
1649	 7.55932422357763 
1650	 4.62518356321588 
1651	 2.8891684514453 
1652	 0.836904584352039 
1653	 1.81479989503971 
1654	 6.79475809262207 
1655	 8.21619373349343 
1656	 9.74510018444278 
1657	 10.4347652579668 
1658	 7.34572468117276 
1659	 8.02228486776532 
1660	 12.3226162302883 
1661	 13.9829881784457 
1662	 16.5674282656805 
1663	 15.400767424645 
1664	 9.24535445356906 
1665	 7.96433282330429 
1666	 7.58989449869296 
1667	 6.20310011791396 
1668	 7.24765190864195 
1669	 6.87338192465724 
1670	 3.96142902580747 
1671	 3.59715772587327 
1672	 5.15779500353205 
1673	 4.72105744863631 
1674	 3.70632147156803 
1675	 3.08574146461897 
1676	 1.9821564945343 
1677	 2.0651109592495 
1678	 2.87360496336157 
1679	 3.11609526412471 
1680	 3.65861443404942 
1681	 3.65740236455648 
1682	 3.04291414657787 
1683	 3.04896972090572 
1684	 3.65312773456696 
1685	 3.38004172651675 
1686	 5.68162573055261 
1687	 5.96736677231705 
1688	 7.47359212910793 
1689	 11.3298175447864 
1690	 12.9027331361754 
1691	 14.3477608702515 
1692	 14.7151625058024 
1693	 11.8547907404288 
1694	 10.6191621891782 
1695	 8.88685165637603 
1696	 9.28683998885415 
1697	 13.9159016983926 
1698	 14.0228543396661 
1699	 12.9437026131058 
1700	 11.5572259858463 
1701	 4.64899284348701 
1702	 2.90285135317491 
1703	 4.98102277985107 
1704	 5.93457618094213 
1705	 9.35418087203086 
1706	 10.4181215187266 
1707	 10.422671670663 
1708	 9.56362844364425 
1709	 6.05303642945163 
1710	 5.87425596671215 
1711	 6.84709730296802 
1712	 7.20528394768074 
1713	 10.3475685408191 
1714	 9.70151547139776 
1715	 5.31096399369213 
1716	 4.81327731892011 
1717	 4.99909076659439 
1718	 4.72763694482313 
1719	 6.02882925502002 
1720	 6.3030049875112 
1721	 5.29850568238853 
1722	 5.09029500626783 
1723	 5.75431815094751 
1724	 6.40383613191372 
1725	 6.69508179390769 
1726	 7.2606588994222 
1727	 6.73968584906977 
1728	 7.80807802469933 
1729	 9.13553078892786 
1730	 9.93630935920705 
1731	 11.764379960129 
1732	 7.06229825595672 
1733	 4.12330104851866 
1734	-1.00584816879584 
1735	-2.65364397150098 
1736	-1.32214458121251 
1737	 0.314719058172826 
1738	 5.21728487871321 
1739	 7.5025302211626 
1740	 8.99755639101065 
1741	 9.80515506046067 
1742	 8.95922057765135 
1743	 9.24587126475486 
1744	 10.2779342640675 
1745	 9.632040663736 
1746	 8.06691781992646 
1747	 7.87928972796465 
1748	 6.14610847978636 
1749	 6.73316101709326 
1750	 10.7052320512448 
1751	 10.436690618753 
1752	 9.1270095446086 
1753	 8.06284262617794 
1754	 4.3463426149665 
1755	 5.4916788081594 
1756	 49.8276406496163 
1757	 46.542059374454 
1758	 37.9181421966129 
1759	 25.3330837885907 
1760	 2.82478583711928 
1761	-24.6475672290923 
1762	-36.4276488508705 
1763	-43.4383610711239 
1764	-45.8891124572791 
1765	-34.075624726784 
1766	-26.8677296764195 
1767	-14.6124284190196 
1768	-9.05347819311154 
1769	 3.71542369651085 
1770	-5.39835904724772 
1771	-11.5694908007595 
1772	-15.3425356932178 
1773	-17.1023621242452 
1774	-13.4591265608885 
1775	-7.21419015006087 
1776	 3.02295793625539 
1777	 6.36395551378007 
1778	 15.013656935249 
1779	 3.45677584875795 
1780	-6.6338706921951 
1781	-1.46575237571209 
1782	-0.44706451640319 
1783	 10.1517901602168 
1784	 15.6072232335548 
1785	 24.8432266609978 
1786	 21.4031874720168 
1787	 11.6942212171731 
1788	-6.81062944452757 
1789	-10.2850213329846 
1790	-16.9970958264308 
1791	-25.6958679043115 
1792	-4.51667357983099 
1793	 10.1649140256031 
1794	 11.3817312931255 
1795	 1.97515002554236 
1796	 2.14320312841682 
1797	-6.3798780697737 
1798	-12.7284006961693 
1799	-0.789158202034683 
1800	 4.99609363341273 
1801	 2.64106497093493 
1802	 4.67237404629154 
1803	 6.58370465474638 
1804	 2.33871835699213 
1805	 8.08939346478448 
1806	 28.5930976626793 
1807	 34.5627949514867 
1808	 28.4123676129808 
1809	 26.1918213694886 
1810	 12.9648409889186 
1811	 2.39674173127941 
1812	-3.15668009166964 
1813	-3.08524018286667 
1814	 0.686753485579959 
1815	 12.9860538622839 
1816	 14.1345305172199 
1817	 18.2467280989847 
1818	 17.7634192408496 
1819	-2.86744589425154 
1820	-8.13463369584085 
1821	-13.4903010001936 
1822	-15.987735512763 
1823	-18.8712311310652 
1824	-19.6504369538122 
1825	-18.4960908424641 
1826	-13.7630889350912 
1827	-12.1943613386352 
1828	-11.4168512468217 
1829	-6.15193775344253 
1830	-5.6817676621131 
1831	-10.8331658403234 
1832	-10.7337959544678 
1833	-6.35693058214392 
1834	-7.29459444196894 
1835	-10.9025949824015 
1836	-12.2566503350013 
1837	-19.6461140340311 
1838	-19.6256876319803 
1839	-0.47175580705249 
1840	-1.83921453814389 
1841	-6.97353006707701 
1842	-18.2312050472792 
1843	-23.2204469153457 
1844	-44.3538531444724 
1845	-45.6613031464532 
1846	-23.6654469033999 
1847	-18.3570967410219 
1848	-22.3333452940516 
1849	-11.0524059839179 
1850	-5.42630642141371 
1851	-4.81158187709802 
1852	 2.3896056852752 
1853	 22.3587522828946 
1854	 24.3375646017591 
1855	 16.98357069158 
1856	 13.9178948940192 
1857	-0.316434676493417 
1858	-1.25897566265024 
1859	 5.88546863711878 
1860	 15.7878395007455 
1861	 28.6811465836115 
1862	 40.5425568350769 
1863	 49.1529165639906 
1864	 55.7040505397136 
1865	 60.9785894678293 
1866	 67.5989413216492 
1867	 66.2874994092262 
1868	 60.226051421754 
1869	 49.1214311290918 
1870	 40.4200346063553 
1871	 29.6671036891248 
1872	 21.9436695421856 
1873	 17.8832435270234 
1874	 10.5210922920286 
1875	 9.73495963396112 
1876	 7.81316750487261 
1877	 7.10117947588981 
1878	 6.09177706786953 
1879	 15.8716120633501 
1880	 15.8412263244659 
1881	 13.135450018323 
1882	 22.27100373028 
1883	 12.8376541802002 
1884	 4.98640328632313 
1885	 4.54662735969145 
1886	-11.2187499363205 
1887	-14.8201744507521 
1888	-12.7332401576652 
1889	-3.17873157258926 
1890	 4.86962366908541 
1891	 15.0301381166373 
1892	 13.5985119305619 
1893	 3.50140717058402 
1894	-8.81105879115053 
1895	-16.7969490040002 
1896	-21.1915538557027 
1897	-19.5735780541449 
1898	-7.40994414244436 
1899	-4.09399272154356 
1900	-1.27756010017429 
1901	 6.02281610022058 
1902	 3.52593326166401 
1903	-8.01290030823176 
1904	-5.24106487648537 
1905	-6.04980548247215 
1906	-11.5693557307055 
1907	 5.3993812540305 
1908	 9.70709022504763 
1909	 6.9225088457368 
1910	 8.81712047406146 
1911	 9.49187866104407 
1912	 7.2407143534011 
1913	 3.74420419812904 
1914	 6.46288303729246 
1915	 6.70896897408452 
1916	 9.00784352674279 
1917	 8.90711705188169 
1918	 17.0449387323989 
1919	 15.9462448740544 
1920	 8.68142758629334 
1921	 4.05943730338056 
1922	-6.38918490306687 
1923	-11.1149127101541 
1924	-12.8056359252284 
1925	-11.5886431451445 
1926	-1.36533156916806 
1927	-1.33902816331614 
1928	-1.36114945684167 
1929	 5.06908234431839E-02 
1930	-1.52636301724499 
1931	-8.96274346323112 
1932	-7.75510180061759 
1933	-7.03686313174998 
1934	-1.23559267872265 
1935	 11.470261048921 
1936	 20.8599734775248 
1937	 39.2420413751347 
1938	 48.4519787613568 
1939	 54.4798085101296 
1940	 55.6018857945622 
1941	 51.1613363234374 
1942	 35.4998525022434 
1943	 28.1761295618823 
1944	 16.4609101981592 
1945	 13.0169582492152 
1946	 19.5489339715224 
1947	 17.9835017732056 
1948	 15.1004645999951 
1949	 13.9942694348921 
1950	 3.57552884493545 
1951	 4.35069638113654 
1952	 17.5680952582599 
1953	 26.8021495897809 
1954	 32.2948257370096 
1955	 46.2865453694663 
1956	 41.6315429281895 
1957	 17.724895402694 
1958	 9.19309103115472 
1959	-5.3808851293343 
1960	-10.1176642863096 
1961	 2.629386134697 
1962	 3.08500025465167 
1963	-1.39979528146062 
1964	-3.46940702536354 
1965	-13.7188597331294 
1966	-14.9558336921976 
1967	-15.8159755412852 
1968	-13.6549747644637 
1969	-7.64703785938671 
1970	 3.78961382122567 
1971	 10.9061026938322 
1972	 25.5041951959511 
1973	 29.7109144787505 
1974	 25.9539337765046 
1975	 23.0795820835048 
1976	 9.30415533817778 
1977	 5.08221689857626 
1978	 4.08742743263943 
1979	 6.50006646020966 
1980	 10.5028086608915 
1981	 21.7582088402772 
1982	 29.3989953446105 
1983	 38.4206899274326 
1984	 42.9758836918106 
1985	 45.5805156117731 
1986	 50.2061619555998 
1987	 57.8242028414946 
1988	 56.274218812632 
1989	 50.4370490767412 
1990	 44.570818916573 
1991	 30.5082822601108 
1992	 12.2601728386833 
1993	 18.3850501016993 
1994	 27.9091490953941 
1995	 27.1253290442558 
1996	 33.2285657694931 
1997	 26.9375356183214 
1998	-0.710726618553819 
1999	-6.71367276683571 
2000	-4.34077626905531 
2001	-6.35084913080134 
2002	-1.64071835381997 
2003	-0.700551399623319 
2004	-2.68268149949001 
2005	-8.70172534851671 
2006	-8.90205162895955 
2007	 0.647288678955924 
2008	 5.54096044121589 
2009	 22.02967314309 
2010	 24.7766436593143 
2011	 23.7349526076193 
2012	 19.9366057710534 
2013	 3.89752013927112E-02 
2014	-4.0940302901031 
2015	 1.75427510336558 
2016	 3.57032099447986 
2017	 12.3213708573704 
2018	 16.6772119660151 
2019	 18.6197940318505 
2020	 16.496788629669 
2021	 13.2119309408625 
2022	 9.84948681668923 
2023	 4.66358274082379 
2024	-5.77096622877314 
2025	-8.05672072103202 
2026	-4.99404157554763 
2027	-7.87525506717265 
2028	-9.88537503891343 
2029	-7.39774929844848 
2030	-9.65164865050141 
2031	-5.06894181704539 
2032	 9.90535677532557 
2033	 19.2658265802197 
2034	 23.5590120665963 
2035	 30.8743180360086 
2036	 38.6897618817691 
2037	 36.9458346224874 
2038	 33.1444730232311 
2039	 31.3389831011344 
2040	 23.6884383537126 
2041	 23.4575691951826 
2042	 24.0648194051723 
2043	 30.416256107117 
2044	 30.0738709995832 
2045	 26.7792326149528 
2046	 23.343120966758 
2047	 19.1901638187319 
2048	 14.6908411556154 
2049	 5.95059119223003 
2050	 7.24757124142444 
2051	 8.29508272258284 
2052	 5.54040632722097 
2053	 14.6034277492618 
2054	 23.058650125668 
2055	 21.8243518024459 
2056	 16.6057103100953 
2057	 5.43311310121182 
2058	-10.4628539248288 
2059	-20.77789422348 
2060	-33.751852348299 
2061	-37.7321520722526 
2062	-35.7742251713676 
2063	-30.8335346987216 
2064	-24.4593989490458 
2065	 1.50608228378322 
2066	 19.7251301272493 
2067	 35.1210353870506 
2068	 48.2201007893905 
2069	 38.3094648868128 
2070	 28.5160109016915 
2071	 18.5557147312401 
2072	 4.37881257801701 
2073	 4.28001948402786 
2074	 13.6740154539123 
2075	 17.8323280690074 
2076	 18.3795434857667 
2077	 21.3242251805328 
2078	 22.8226008636447 
2079	 14.3426093718011 
2080	 13.9301946640973 
2081	 22.5387261477324 
2082	 21.5448468859115 
2083	 21.4444372349898 
2084	 20.0905382835908 
2085	 11.9435903355682 
2086	 13.6458600689631 
2087	 11.5011294402383 
2088	 15.2635252501119 
2089	 25.0146189628085 
2090	 27.1219852719939 
2091	 28.9982758773084 
2092	 26.8621730456182 
2093	 25.2637161733236 
2094	 25.0042746703102 
2095	 21.2111127787131 
2096	 17.4225961297606 
2097	 11.1864232173035 
2098	-0.398650499583723 
2099	-8.74973762181678 
2100	-14.6967548649476 
2101	-16.6143326931629 
2102	-15.2229185936373 
2103	-19.9141239945613 
2104	-12.2535174206869 
2105	-6.66639278007273 
2106	-6.45459091551137 
2107	-8.03813918632166E-02 
2108	-12.1801950267859 
2109	-28.5119096441867 
2110	-39.0597789003728 
2111	-50.5402800457975 
2112	-59.3968723833693 
2113	-63.1296275986825 
2114	-59.0459086599882 
2115	-48.3381493679922 
2116	-38.1015304369545 
2117	-15.2115767696231 
2118	-1.65354528410868 
2119	 8.93595133681874 
2120	 13.9202173117938 
2121	 18.0489100032855 
2122	 8.47235468704678 
2123	-3.18910431253787 
2124	-11.9767283653799 
2125	-24.4937330193246 
2126	-21.967937366697 
2127	-9.56323962488259 
2128	-1.20930890717539 
2129	 1.62009833518528 
2130	 2.68735425054186 
2131	-8.85839577256725 
2132	-23.4387290150746 
2133	-28.7485768570428 
2134	-33.4294368069395 
2135	-32.4681164283374 
2136	-21.3893517615332 
2137	-17.0383636270364 
2138	-14.0171983798654 
2139	-9.97593294458286 
2140	-6.48379435091775 
2141	-4.12192822249872 
2142	-1.76496945263494 
2143	-2.80838152232383E-02 
2144	-9.67701048917308 
2145	-23.4785703044563 
2146	-33.4481448414672 
2147	-34.5458303833576 
2148	-27.6226739704245 
2149	-10.2698676383388 
2150	 2.2515127253777 
2151	 8.35698764479273 
2152	 16.3627489451591 
2153	 17.1957070085702 
2154	 23.1929360457174 
2155	 28.2944204206932 
2156	 33.8058256773612 
2157	 40.0828294331883 
2158	 37.5150370590046 
2159	 27.2717001628436 
2160	 25.044595974242 
2161	 15.1672221350878 
2162	 11.2718091061276 
2163	 18.6226259644365 
2164	 13.38889773349 
2165	 2.59063113678255 
2166	-0.669974727812751 
2167	-3.48546892784924 
2168	-6.34554892842112 
2169	-7.02382181363547 
2170	-3.67233127210474 
2171	-14.3523928376456 
2172	-17.7911180618925 
2173	-11.4574666055452 
2174	-8.64635569130764 
2175	 4.98009476621229 
2176	 5.34617684118765 
2177	 0.541778160708574 
2178	 9.73521501057655E-02 
2179	-7.40307551268755 
2180	-12.752962790495 
2181	-12.2729093846286 
2182	-9.71608835781391 
2183	-4.59635977529174 
2184	 7.84277377532879 
2185	 19.7670950693831 
2186	 36.920290677255 
2187	 43.1343271300266 
2188	 46.7718044139686 
2189	 43.0026378239016 
2190	 36.9245994474034 
2191	 30.9129471766973 
2192	 17.3972616941297 
2193	 14.6651762671908 
2194	 16.0799197841878 
2195	 6.87955892652087 
2196	 8.71883615476653 
2197	 10.9855802643024 
2198	-4.59586645881686 
2199	-15.8016921088491 
2200	-15.1701661979556 
2201	-21.2471096143945 
2202	-16.3727896120733 
2203	-3.43523933896605 
2204	-8.84280418670793 
2205	-7.16318070226534 
2206	-1.29508707755841 
2207	-7.87683491700481 
2208	 1.29683154045197 
2209	 11.2643796995331 
2210	 17.0185102235915 
2211	 28.6851303714726 
2212	 29.01033437042 
2213	 18.3715549628261 
2214	 13.4166125796237 
2215	-5.30103537216128 
2216	-11.9538063214218 
2217	-7.01468896213922 
2218	-5.2718066504256 
2219	-2.68239872113651 
2220	 11.4243362310154 
2221	 13.1704717182566 
2222	 6.88667486886386 
2223	-3.38997720837493 
2224	-14.8831189354551 
2225	-20.0265799717468 
2226	-20.9386829868956 
2227	-21.4849728814454 
2228	-21.5423152603356 
2229	-15.5091879363827 
2230	-2.50333220371623 
2231	 2.1880646376486 
2232	 8.67422212283873 
2233	 10.2982246845186 
2234	 1.67198298699472 
2235	 7.51177615573765 
2236	 7.55257762875434 
2237	 12.1537687360031 
2238	 19.5794298519133 
2239	 21.3047884131475 
2240	 28.3674996782852 
2241	 26.8099936526743 
2242	 27.4378174102646 
2243	 22.7162527656363 
2244	 11.469353054668 
2245	 5.64453752584464 
2246	-5.72450099405901 
2247	-11.4665316346467 
2248	-11.8956170759977 
2249	-14.2396343704616 
2250	-11.3279895254074 
2251	-9.74674700668348 
2252	-11.9612364634469 
2253	-10.114142517927 
2254	-2.78136469317036 
2255	 0.496848006220729 
2256	 3.35746260713788 
2257	 5.56174491792063 
2258	 6.0839987639313 
2259	-0.849757071748645 
2260	-6.32999489677804 
2261	-3.91496628537809 
2262	 2.22819908505109 
2263	 4.34609895778351 
2264	 3.93108169969935 
2265	 11.6484030361036 
2266	 15.8605209361467 
2267	 17.0694193595333 
2268	 17.9335156785453 
2269	 12.433475028269 
2270	 9.77200506152893 
2271	 4.66039379902299 
2272	 11.6749568755236 
2273	 20.6662622735951 
2274	 23.4178743387485 
2275	 36.061864040234 
2276	 40.296351746086 
2277	 42.1911008607351 
2278	 49.4620031233395 
2279	 52.9647677315358 
2280	 47.6604767281944 
2281	 36.5686410004989 
2282	 29.0759532314613 
2283	 12.8751376604434 
2284	 2.71413304351867 
2285	 1.40622657860686 
2286	-2.42662610025593 
2287	-8.42692417204938 
2288	-8.32181093964729 
2289	-4.53514771674354 
2290	 2.27329228438694 
2291	 19.3202715448353 
2292	 22.4103124433147 
2293	 22.9378426767765 
2294	 16.2777258460239 
2295	-8.06623310022188 
2296	-16.1973569339803 
2297	-20.5063779645058 
2298	-24.0420128465133 
2299	-20.0893621926058 
2300	-19.008764415519 
2301	-18.7641768143778 
2302	-14.7697954962309 
2303	-8.65973954473431 
2304	 2.52334707547782 
2305	 20.4370569098445 
2306	 29.1508887095506 
2307	 38.7884859869013 
2308	 38.9613081671203 
2309	 29.1195871062322 
2310	 20.4022572325794 
2311	 8.91246588281918 
2312	 7.27725113020841 
2313	 5.11047884056316 
2314	 0.117154935682419 
2315	-1.06205202843147 
2316	-1.36011063126126 
2317	 1.90767176750908 
2318	 4.46999001720961 
2319	 9.87917992072057 
2320	 11.1629841523506 
2321	 9.27137918741979 
2322	 11.7667756893915 
2323	 9.01807987999305 
2324	 11.2602851124563 
2325	 13.4875353871018 
2326	 15.3630238169421 
2327	 33.7291563455663 
2328	 34.3803282986311 
2329	 20.2826479280384 
2330	 14.7742699540712 
2331	-6.81175894379371 
2332	-16.5785813008621 
2333	-4.52770615524638 
2334	-3.25856900342258 
2335	-4.36928035822946 
2336	-1.34066951178481 
2337	-9.43101447316183 
2338	-12.7743625279681 
2339	-13.9310677987286 
2340	-23.1154531838222 
2341	-19.701533594941 
2342	-14.6937210016968 
2343	-7.8309659668922 
2344	-0.512575086084033 
2345	-4.23322771463524 
2346	-10.6420473387529 
2347	-11.0568909723808 
2348	-10.0133397048022 
2349	-2.12692156311922 
2350	 9.59830959189237 
2351	 13.787298492139 
2352	 14.1267656487954 
2353	 9.04568937079562 
2354	 3.53040005043968 
2355	-1.93137048071446 
2356	-0.782238383284844 
2357	 4.29687909114632 
2358	 9.8570982930108 
2359	 17.6910559590719 
2360	 17.8895570656089 
2361	 22.6055775158029 
2362	 25.2026582592648 
2363	 18.3255700551984 
2364	 24.3258575250544 
2365	 22.5013707636768 
2366	 11.282563063421 
2367	 6.56239180099648 
2368	-5.26809334265468 
2369	-18.7781955341451 
2370	-25.1201316738448 
2371	-29.1672312730798 
2372	-31.0636703195678 
2373	-18.5279089694446 
2374	-6.98785622444803 
2375	 6.90767553878979E-03 
2376	 3.63816411186542 
2377	-4.92533130057916 
2378	-12.9961122517767 
2379	-18.7345060089945 
2380	-25.950937368987 
2381	-31.7743768978318 
2382	-27.6106891245633 
2383	-20.7774451571186 
2384	-5.28797775239437 
2385	 10.2648618330604 
2386	 12.1752983606219 
2387	 9.86578393506901 
2388	 1.4906113313752 
2389	-0.681361191112475 
2390	 6.49784645901319E-03 
2391	 8.52240937657176 
2392	 17.7044046663698 
2393	 27.0028735756176 
2394	 34.8010934201117 
2395	 23.9346627770176 
2396	 18.8837202970348 
2397	 6.54958629884282 
2398	-4.27156343357491 
2399	 0.543485293023618 
2400	 1.36344928110562 
2401	 0.621961768686142 
2402	-0.581580134893468 
2403	-2.2318085927216 
2404	-5.4422218390061 
2405	-3.73780378629334 
2406	 2.8024322530569 
2407	 5.54388231321952 
2408	 10.6649546564335 
2409	 17.3979085715385 
2410	 6.1533122065344 
2411	-2.59426374489171 
2412	 1.79654820095827 
2413	-8.50417588901158 
2414	-6.54954541060185 
2415	 5.01981842132086 
2416	-3.51838351174277 
2417	-1.8070368972897 
2418	 8.00000155197769 
2419	 10.4629660158942 
2420	 12.1707882985902 
2421	 14.3345911141453 
2422	 9.24834714275421 
2423	-0.386948028340876 
2424	-4.23334141151861 
2425	-6.60895324276307 
2426	-0.961338601962205 
2427	 9.01228091132794 
2428	 11.6417174858192 
2429	 13.8558892057793 
2430	 14.3474141874899 
2431	-0.227609820241849 
2432	-2.81960269257091 
2433	-1.75958941934119 
2434	-15.1657604710195 
2435	-13.1135463637451 
2436	-7.39613400104504 
2437	-8.16663623875018 
2438	-6.04188699447735 
2439	-0.572803277187702 
2440	 0.381304713299123 
2441	 7.80327369645756 
2442	 21.886816946648 
2443	 23.3564077222905 
2444	 21.8231234731769 
2445	 8.54677853499681 
2446	-7.41556999177506 
2447	-11.3747451796309 
2448	-6.05353976808314 
2449	 5.86971030135176 
2450	 14.3866790541212 
2451	 18.0814231210984 
2452	 5.31754184840948 
2453	-3.06904050635238 
2454	-0.796615890221613 
2455	 5.46421502315301 
2456	 22.6297084336642 
2457	 35.9986766503991 
2458	 36.2439495797459 
2459	 27.4867598458618 
2460	 25.2060362595547 
2461	 17.2884222314217 
2462	 15.6690356977221 
2463	 22.3946492839779 
2464	 17.2765695509418 
2465	 5.92664605028884 
2466	-2.82505118392247 
2467	-11.2781407649933 
2468	-18.1751944775005 
2469	-11.8159025256483 
2470	-8.72901807255592 
2471	-5.34617863731885 
2472	-0.868605812996621 
2473	-4.80551326045159 
2474	-2.8709365440869 
2475	-1.70608811924133 
2476	-7.8114994680007 
2477	-8.65985839733868 
2478	-4.36971164327169 
2479	 6.49574724064803E-02 
2480	 9.58241995046623 
2481	 17.099188314247 
2482	 18.7002721454303 
2483	 16.8847220889444 
2484	 9.26070167762426 
2485	 15.2366053139988 
2486	 19.826215282284 
2487	 21.950236158708 
2488	 28.4533908125658 
2489	 9.01782357813298 
2490	-3.62931149076616 
2491	-11.5315616104119 
2492	-13.1203877332477 
2493	 7.78292705307711 
2494	 21.061928929815 
2495	 29.2932530857159 
2496	 27.8728501527398 
2497	 22.7454281559105 
2498	 25.5222783325807 
2499	 28.8189470042233 
2500	 38.2802720453855 
