Wavelength	2mm_blackPETG00000.asd
350	 0.739809153875529 
351	 0.462987140071332 
352	-0.724146564418604 
353	-0.973447688050198 
354	 0.430646566769995 
355	 1.51789160011766 
356	 0.842398053329809 
357	-0.247219308334421 
358	-1.02146704097364 
359	-0.820654077465853 
360	 0.826436124237691 
361	-0.24833894144574 
362	-1.01546919485993 
363	 1.33847437237694 
364	 1.0728296145955 
365	 0.502875193761261 
366	 0.573879021196064 
367	 0.222987251961306 
368	 0.808620203059241 
369	 1.41030643955518 
370	 0.641391348991861 
371	-0.736842095871653 
372	-0.833145757376494 
373	 0.444015622065422 
374	-0.579173628846997 
375	-0.868743645686568 
376	-0.134955329414468 
377	 0.647419715883347 
378	 1.49502353621052 
379	 1.15224077620265 
380	-0.649111387807279 
381	-1.1018150441385 
382	-0.207626570311309 
383	 1.03846016100363 
384	 0.712294148126102 
385	-0.887174081871934 
386	-1.74043447259522 
387	-0.493556218426695 
388	-1.41231695036831 
389	-1.71962616918031 
390	-0.547040720259142 
391	-0.266952784452914 
392	-1.26705008905817 
393	-1.98719537526967 
394	-0.447576040319477 
395	-0.336011552759801 
396	-1.13931291805689 
397	-1.61379056027113 
398	 0.295827278550119 
399	 0.363898366368598 
400	-0.989459387793996 
401	 0.15481454339823 
402	 0.838764918140101 
403	 0.621522174243217 
404	 0.101189234108378 
405	 2.19210929282809 
406	 2.32821419352304 
407	-0.308225413378006 
408	-0.491275278734272 
409	-0.316292794004284 
410	-0.471142406377883 
411	-1.08405392346703 
412	-0.60878608785648 
413	 4.14517364906804E-02 
414	-1.71378462440229E-02 
415	-0.776946703574739 
416	-1.01954294149146 
417	-0.521150199945153 
418	 5.94425331166474E-02 
419	 0.769586520846889 
420	 0.817355516458137 
421	-0.22692629159455 
422	 0.359306201994418 
423	 0.880013874734224 
424	 0.241397297190438 
425	-1.30178171739105 
426	-1.76170357583496 
427	-1.20625887144474 
428	-0.854812183206413 
429	-0.193573111511769 
430	 0.29878340149028 
431	 0.195108995741617 
432	-0.191968311279863 
433	-0.800558961906208 
434	-1.27094650576722 
435	-0.758032029013284 
436	-1.03796939143798 
437	-1.38558501172324 
438	-0.46670869390148 
439	-1.0733799782121 
440	-1.04919304256121 
441	 0.511694449217995 
442	-0.698219780955041 
443	-1.229241458858 
444	-0.456872882492095 
445	-0.19423544204447 
446	-1.02385816559738 
447	-1.00871497985464 
448	 1.41775330364715 
449	 2.87054347164283E-02 
450	-0.665044449598473 
451	 0.961489072656887 
452	-1.95671100719807 
453	-2.23696989011374 
454	-0.161436401632337 
455	-0.823366702614478 
456	-2.09964593845805 
457	-2.37622881995702 
458	-0.926948734911448 
459	-1.15824322341664 
460	-0.913428084106328 
461	 0.270450914996617 
462	-0.855250596481265 
463	-1.41531076808438 
464	-0.987374617358109 
465	-0.380087160665425 
466	-0.228294308817472 
467	-0.68426146254804 
468	-1.42911332139583 
469	-0.824252301680158 
470	-0.134465580793357 
471	-0.165795575058561 
472	-1.12890158205788 
473	-1.18320448668847 
474	-0.652995853554614 
475	-0.806109726288676 
476	-3.04308403908682E-02 
477	 0.164108608306693 
478	-1.12044875113636 
479	-0.583227272172902 
480	-0.442145736102988 
481	-1.31544518359491 
482	-1.60485352538547 
483	-1.26962489014824 
484	-0.942368873011402 
485	-1.52775984299929 
486	-2.2005469725358 
487	-1.77852863986832 
488	-0.115409332585234 
489	-0.726107597650187 
490	-1.11098990405158 
491	-0.87560501689375 
492	-2.52165167270861 
493	-3.16689301383504 
494	-2.2158486435958 
495	-0.285252676384367 
496	-0.443149764567379 
497	-1.7084480419082 
498	-2.37446883712957 
499	-0.255832318906974 
500	-0.224001477319855 
501	-2.67723240678031 
502	-2.24257543833849 
503	-0.971414932195193 
504	-0.34362802069774 
505	-1.57896222374503 
506	-2.43674011071434 
507	-2.59344855380744 
508	-2.34423593833338 
509	-3.19480393721323 
510	-2.11144648504971 
511	 0.480069428769177 
512	-0.672584614236946 
513	-1.7647351373478 
514	-2.25885918425488 
515	-2.84149510426583 
516	-3.71527030187905 
517	-3.11531316993551 
518	-0.437553073554946 
519	-0.181965473787197 
520	-0.911449824118365 
521	-1.74847691016314 
522	-2.74181773885048 
523	-3.4770901460368 
524	-3.09618286718363 
525	-0.888181159561384 
526	-1.57659360678305 
527	-2.88380256755774 
528	-2.45244912578537 
529	-3.27509709499415 
530	-3.50954380910371 
531	-2.6061477953236 
532	-2.31433060415847 
533	-0.912862584601457 
534	 0.418503985162624 
535	-0.873785997619088 
536	-2.57333776241956 
537	-3.21004133983635 
538	-2.23150457811945 
539	-2.3912397150595 
540	-2.47453135406502 
541	-1.95875597159668 
542	-1.90441997635737 
543	-1.61336814928114 
544	-1.36475564918893 
545	-1.94956993298219 
546	-1.44559035715668 
547	-1.1772278006288 
548	-2.517545120836 
549	-2.66521168814747 
550	-2.77130075699581 
551	-3.25243285819218 
552	-2.419088150335 
553	-0.813578354350617 
554	 0.115036028217045 
555	-1.91446384638903 
556	-1.78920953794608 
557	-1.47583280723651 
558	-3.89285113398691 
559	-4.06945330374934 
560	-2.25237010639995 
561	 6.86840805241083E-02 
562	-0.441465348667594 
563	-2.01800458579455 
564	-3.11145780411233 
565	-2.05360598495105 
566	-1.58789298956643 
567	-1.38631355144427 
568	-0.390017755858614 
569	-0.77564308844093 
570	-1.39025465257665 
571	-1.40046010574938 
572	-2.27978043687928 
573	-2.92032827798796 
574	-2.57961611986925 
575	-0.715265177821312 
576	 0.069909929226516 
577	-0.335462598569414 
578	-1.00709689312531 
579	-2.62031927435534 
580	-4.20724405784672 
581	-4.59040700779485 
582	-2.42553711486853 
583	-0.731769444434912 
584	-0.820143662647792 
585	-1.58900855617664 
586	-1.89506911201119 
587	-1.95043623421161 
588	-2.67784800971761 
589	-2.28448874819795 
590	-1.36534917307583 
591	-0.97848245665568 
592	-1.8301548677137 
593	-2.63227940558367 
594	-2.76119147265824 
595	-2.99780299066726 
596	-3.1258040006827 
597	-2.80111398884906 
598	-1.56565508207297 
599	-1.17481132171683 
600	-1.80652556131133 
601	-2.84366182867302 
602	-1.88364199328519 
603	-0.767709555720096 
604	-0.875831817672931 
605	-1.84659149149616 
606	-2.3625103220477 
607	-2.15137988702963 
608	-1.86464447228299 
609	-2.97072797716113 
610	-3.8243896471126 
611	-2.15742746629592 
612	-0.801024390251113 
613	-0.344255611341572 
614	-0.798680064623542 
615	-1.47368567092525 
616	-2.67288522230136 
617	-3.56204839857837 
618	-1.57031014188713 
619	-1.3704446209472 
620	-2.34753661398593 
621	-1.83909294668563 
622	-2.40017542126445 
623	-3.06642299603467 
624	-2.70221676242656 
625	-1.53725896749188 
626	-1.77164746206959 
627	-3.35762535341635 
628	-2.30226792785941 
629	-2.05340056591728 
630	-2.85665484824841 
631	-3.37218866826694 
632	-3.70552266618406 
633	-2.901126270437 
634	-0.84326520628033 
635	-2.6013861942926 
636	-4.2472654029063 
637	-3.83015593641436 
638	-4.46963938076645 
639	-4.09520453156403 
640	-2.56978893395078 
641	-1.07097952159185 
642	-1.2055257669383 
643	-2.02910362015934 
644	-2.13371448665113 
645	-3.17028347509643 
646	-3.67846588021113 
647	-2.84224604003696 
648	-1.88040468839786 
649	-2.22393446089097 
650	-2.98988374864607 
651	-0.732074320947806 
652	-1.9659968747906 
653	-4.11443928168688 
654	-2.11342887282743 
655	-0.69194813811052 
656	-0.938934870895476 
657	-2.54631297321813 
658	-2.50819342039415 
659	-2.5958132912222 
660	-2.96836224380724 
661	-1.55701939693242 
662	-1.27833561822211 
663	-1.8350508442913 
664	-1.6756325412137 
665	-2.68043227115485 
666	-3.65689123698288 
667	-3.51355191953807 
668	-3.72435326043386 
669	-3.34978822544021 
670	-2.41567492368416 
671	-2.66999583357776 
672	-3.31792541948657 
673	-3.44827492107311 
674	-2.04017849706532 
675	-0.843945254658374 
676	-1.15206609540101 
677	-3.00032754128941 
678	-0.75000641525825 
679	-0.370208393557714 
680	-3.81074771440527 
681	-4.40641622500025 
682	-2.47204679215601 
683	-0.457383611940079 
684	-2.72541652999121 
685	-3.30258988660643 
686	-2.71911588029914 
687	-2.78014860451174 
688	-1.86461237066424 
689	-1.36001232838956 
690	-2.00571710515457 
691	-2.78789883027647 
692	-2.7333584442381 
693	-2.3509961290286 
694	-3.50612487423335 
695	-2.91601732950017 
696	-1.73636517467738 
697	-2.14486421621301 
698	-2.89504678977043 
699	-3.31431922402176 
700	-3.03200833881959 
701	-2.05164297485551 
702	-2.06630923662933 
703	-2.89526157610904 
704	-2.43461067513195 
705	-2.10071048721003 
706	-2.42793308973732 
707	-3.49676801680004 
708	-3.88380036591265 
709	-3.48869774859198 
710	-2.70179595392331 
711	-2.77190161715757 
712	-2.73218243379166 
713	-2.55479087298606 
714	-3.35219319388939 
715	-3.01863193149116 
716	-2.3265181674051 
717	-2.91442075693334 
718	-2.58903475433368 
719	-2.30921798919667 
720	-2.72259135793647 
721	-1.72448304203478 
722	-2.44931477006431 
723	-4.22564308061921 
724	-1.12834519973574 
725	-0.949758134063767 
726	-2.83177522209722 
727	-2.65953918029089 
728	-2.84337227350364 
729	-3.34052781844525 
730	-3.54762570204675 
731	-1.86566512588978 
732	-1.23479395221295 
733	-2.33862151880936 
734	-2.90899452409297 
735	-3.1706660784766 
736	-3.35133742549861 
737	-3.67403194893646 
738	-2.48410584613225 
739	-2.16405145913201 
740	-3.86736565690267 
741	-1.97358071670733 
742	-0.70332812631692 
743	-1.59320134671373 
744	-2.64985214731864 
745	-3.2036595570683 
746	-2.95960799083715 
747	-2.04065927471041 
748	-2.00138079256757 
749	-1.93181930687613 
750	-1.14704534032216 
751	-1.16834690076633 
752	-1.66584312614798 
753	-2.21283610307966 
754	-2.1780114934496 
755	-2.91116755957486 
756	-4.05783446372221 
757	-4.57010504780923 
758	-4.44275878586093 
759	-4.10516033106481 
760	-3.78172264623766 
761	-2.64383724691876 
762	-1.80148653557844 
763	-1.80466452376291 
764	-2.60839002535553 
765	-3.6595858696357 
766	-4.25768013749318 
767	-3.69592243861549 
768	-1.52950107267444 
769	-0.662901609299358 
770	-2.4504325030165 
771	-2.70963460171282 
772	-2.8699709204831 
773	-3.24979889374763 
774	-3.12295080610252 
775	-1.24861528616503 
776	-0.417371175584211 
777	-3.62653446979512 
778	-3.92829800533448 
779	-3.23661828544974 
780	-3.40078874892889 
781	-3.83058653074246 
782	-3.0427388300703 
783	-1.50918447366957 
784	-1.39769721436894 
785	-2.74915908811211 
786	-3.7317027353859 
787	-2.62585582365683 
788	-2.04035744263143 
789	-2.32967110330232 
790	-3.04764807819607 
791	-2.31697120507415 
792	-2.35243225901091 
793	-3.0735893913571 
794	-3.01684941263148 
795	-2.83257779615004 
796	-2.48056047077943 
797	-1.85735286531628 
798	-0.941927776516146 
799	-1.19061267380538 
800	-2.30372641790524 
801	-0.80486074898481 
802	-1.96854791258427 
803	-3.86365415511911 
804	-1.91426043236017 
805	-3.26457359789451 
806	-4.52796127053368 
807	-2.79142198172889 
808	-1.97215949098804 
809	-1.32186942660038 
810	-0.957188483903055 
811	-1.96653814474335 
812	-3.1042100715917 
813	-3.51172479127271 
814	-2.84719535402547 
815	-3.45723155470847 
816	-4.29691588375883 
817	-4.16029582782474 
818	-1.74929951247195 
819	-1.22750952251294 
820	-2.35009240258051 
821	-1.89480975449269 
822	-1.07294142109548 
823	-1.17860725091495 
824	-2.70353632762655 
825	-2.45675732624528 
826	-2.19731605211147 
827	-2.45086485209852 
828	-1.6437497675909 
829	-1.67870718911758 
830	-2.20156464253167 
831	-2.05217747362664 
832	-1.80302811330683 
833	-1.96435170270558 
834	-2.50601684220467 
835	-1.98404299567289 
836	-1.153678320161 
837	-0.693561246544502 
838	-1.25721844024826 
839	-1.96142480352555 
840	-2.712820888614 
841	-3.47436395172216 
842	-3.62025300452673 
843	-2.83070718111035 
844	-1.64236565131028 
845	-1.91086541177565 
846	-2.83463564428789 
847	-3.61552584241272 
848	-3.41966015038235 
849	-2.04304342342357 
850	-1.27463500317563 
851	-2.00993963254359 
852	-2.42582146111908 
853	-2.19832474265532 
854	-1.95258593144778 
855	-3.00855848352754 
856	-2.67768268857847 
857	-2.26759363859591 
858	-2.9180450371295 
859	-0.750853257259422 
860	-0.86821282033309 
861	-3.36407647519056 
862	-1.52368229469878 
863	-1.57712567906464 
864	-2.76500661689813 
865	-2.39439551156317 
866	-1.6034020954041 
867	-1.74864127178785 
868	-2.93695675552083 
869	-2.68229882783691 
870	-2.7102829499482 
871	-2.96089732974706 
872	-2.64691688737635 
873	-3.22709853410941 
874	-3.17614463463396 
875	-1.94103457736031 
876	-3.30532582171129 
877	-3.5203309568329 
878	-2.00728792893618 
879	-0.759354635461337 
880	-1.1406525498204 
881	-1.85253265634081 
882	-1.62532288448002 
883	-2.33922099088617 
884	-2.66865859149442 
885	-2.36753559920708 
886	-2.53204347551654 
887	-2.57635027517284 
888	-2.33301535171469 
889	-2.01249894552325 
890	-3.51924195777994 
891	-3.51157777670708 
892	-1.36398266522109 
893	-1.12965268526925 
894	-2.05038559970468 
895	-3.13145800259589 
896	-3.25860738430236 
897	-2.77201131115731 
898	-2.47870427374267 
899	-2.6170448226321 
900	-2.10686742488366 
901	-2.30408524999829 
902	-2.70112600696735 
903	-2.06980068254925 
904	-1.65931431995975 
905	-1.73021558258231 
906	-2.28512033347733 
907	-3.31639193170469 
908	-2.57129469109077 
909	-1.37735155174696 
910	-2.88055129582932 
911	-3.29938827681006 
912	-2.41183980707185 
913	-1.12222408320895 
914	-1.83741028914983 
915	-2.12126921948906 
916	-1.56137769870458 
917	-1.13423574428714 
918	-1.45545723525707 
919	-1.89832155782219 
920	-1.96806810042175 
921	-2.34945017406855 
922	-2.45839100745725 
923	-2.46368795720089 
924	-2.99672901049618 
925	-2.46922986232584 
926	-1.84664682627478 
927	-2.00476507068415 
928	-2.03862114779098 
929	-2.000339710306 
930	-2.11955041019107 
931	-2.7266988688235 
932	-3.21616171661169 
933	-3.14703799622702 
934	-2.43782248517154 
935	-1.77733792821364 
936	-1.87602173787068 
937	-2.36541718536482 
938	-2.11581049185976 
939	-1.46131361415157 
940	-1.19866163743851 
941	-1.74157742123745 
942	-2.40453101768607 
943	-1.60324014604588 
944	-0.843865076445391 
945	-3.13500637567695 
946	-2.19593945667823 
947	-1.29958375524033 
948	-2.82876473365168 
949	-3.40788528867854 
950	-1.73334004664587 
951	-0.220987544148493 
952	-2.5769554602999 
953	-1.33359949559054 
954	-0.926214222433467 
955	-3.31677432561562 
956	-1.6954001832524 
957	-2.29261929813671 
958	-3.93448187083236 
959	-2.98557833568781 
960	-2.58229186074708 
961	-2.28831232023788 
962	-1.97419410953512 
963	-2.6236034581297 
964	-2.38184683789527 
965	-2.37736922465737 
966	 3.10358740573633 
967	 4.08703569729609 
968	 5.90151428197697 
969	 5.02447832813159 
970	 0.167493913785294 
971	 1.15608936942593E-02 
972	 1.64203943017056 
973	 2.39744917850842 
974	 5.51227924149795 
975	 6.59069071436613 
976	 8.16591772386116 
977	 3.49035012448694 
978	-0.434187551088865 
979	 0.637319254970927 
980	-1.77339419166122 
981	-0.11080605505511 
982	 4.91243308483101 
983	 1.47993196254378 
984	 0.806169350740164 
985	 1.00533652259915 
986	 8.91867520943826E-02 
987	 0.136620682604174 
988	-0.389541057045696 
989	-3.29730121527786 
990	-4.16599888646713 
991	-6.08911086969409 
992	-5.87541946689372 
993	-3.73099874016417 
994	 0.924010673895801 
995	 2.37930261951848 
996	 2.56675783025814 
997	 4.20899270880502 
998	 3.55760381855559 
999	 4.37458370596674 
1000	 5.29738188380669 
1001	 1.94028905593832 
1002	-0.501114798176965 
1003	-1.00715584284955 
1004	-1.87516053032531 
1005	-2.0152111360653 
1006	 1.28774961096464 
1007	 1.61880534399842 
1008	-0.402933740589245 
1009	-1.45062113212659 
1010	 1.32444288312672 
1011	-0.332968937453409 
1012	-0.633704322050464 
1013	 2.38038838006524 
1014	 7.12596712232031E-02 
1015	-1.52430033469976 
1016	-0.12018813464654 
1017	-2.33982416049355 
1018	-4.64556913225883 
1019	-3.54755402663895 
1020	-5.0823457106516 
1021	-3.13091406836377 
1022	 3.64793785875666 
1023	 6.0021308060785 
1024	 6.81973010248775 
1025	 7.36722353729834 
1026	 4.94027353183923 
1027	 1.86618680554162 
1028	 2.36334180536767 
1029	 2.62029093677681 
1030	 4.74504798715211 
1031	 4.37133583108327 
1032	 2.1678791880409 
1033	 2.55329567705602 
1034	 2.57156661649347 
1035	 0.370644287311778 
1036	-1.63250234243599 
1037	-1.33032022517814 
1038	-1.3202105130408 
1039	-1.59663124451313 
1040	-3.3056520107143 
1041	-8.65643676782665 
1042	-8.90342706642177 
1043	-8.51735158445523 
1044	-5.55493602158445 
1045	-0.142655777505731 
1046	 2.25712362441004 
1047	-0.981537863570901 
1048	-4.92640015393092 
1049	-7.96046495891327 
1050	-7.12089909461933 
1051	-4.06868629462451 
1052	-2.60814367673239 
1053	 0.228615529110811 
1054	 0.632124734333881 
1055	 1.13016781977377 
1056	 4.10389430532365 
1057	 3.96239584059524 
1058	 1.68148879283433 
1059	 0.647945573224328 
1060	-2.51008003855065 
1061	-3.47048591539678 
1062	-3.72181572696428 
1063	-0.256406076298261 
1064	 1.66036986855208 
1065	-0.605900905888809 
1066	-2.29879394176631 
1067	-3.45291307923989 
1068	-4.39970517245294 
1069	-2.03115844351107 
1070	 1.76812337379086 
1071	 2.4003861443221 
1072	 4.10569927752637 
1073	 5.0586127702783 
1074	 4.87395812715592 
1075	 4.37004992431366 
1076	 2.89325615610094 
1077	-2.29838332760359 
1078	-2.89352377102394 
1079	-2.16476527397063 
1080	-1.52537967210835 
1081	 4.67112223789505 
1082	 5.56929975325528 
1083	 2.70543280186234 
1084	 0.372513514853463 
1085	-1.91156503738616 
1086	-4.81220368145897 
1087	-2.7779657918775 
1088	-0.868854900386519 
1089	 0.715820035707148 
1090	 1.60036132713201 
1091	 1.77435583587044 
1092	 0.995347093344887 
1093	 0.445431506031136 
1094	-1.42069018410647 
1095	-1.52907493513623 
1096	-1.14142295211385 
1097	-0.905131082142696 
1098	 1.11364996499252 
1099	 1.96337158351901 
1100	 1.94136055840631 
1101	 2.02110018677176 
1102	 1.35732703662089 
1103	 1.17308965016956 
1104	 1.75308847187627 
1105	 1.24737420354092 
1106	-1.93500416175232 
1107	 0.312711291600125 
1108	 3.30776029651525 
1109	 4.41072900035272 
1110	 5.11158617790218 
1111	 7.97022406648676 
1112	 6.15743436921944 
1113	-1.55350508629119 
1114	-3.04349542119097 
1115	-3.41033925451242 
1116	-3.28218504799541 
1117	 0.618921467260237 
1118	 2.50005074884927 
1119	 2.49056744618899 
1120	 3.72329395523578 
1121	 6.82905814504871 
1122	 7.80769814078021 
1123	 9.1971878610641 
1124	 8.5910922745469 
1125	 5.18864334565948 
1126	 1.25053752214112 
1127	 0.611262396253462 
1128	 0.529120983221713 
1129	 0.255879392842543 
1130	 2.54607366556151 
1131	 3.05505361142375 
1132	 1.8482052789187 
1133	 1.31573302336197 
1134	 2.72265127708794 
1135	 0.837351785589753 
1136	-5.47334048478285 
1137	-6.44394394544163 
1138	-6.44511816204614 
1139	-5.98566910658496 
1140	-0.500528618221418 
1141	 1.21864880801563 
1142	-0.035341414332784 
1143	-1.51001423340959E-02 
1144	-0.130381277086223 
1145	-0.495441466090981 
1146	-0.770739295579406 
1147	-0.947062162546616 
1148	-1.22691138825769 
1149	-1.97134571318645 
1150	-2.66717541458165 
1151	-3.54417127739245 
1152	-3.39047880260808 
1153	-2.22926213249095 
1154	-3.09322925795273 
1155	-4.05298264622518 
1156	-5.24559371345311 
1157	-9.99813852452899 
1158	-10.1951814120252 
1159	-7.56245105404798 
1160	-5.45282175271311 
1161	 0.554857790403007 
1162	 2.6181028361841 
1163	 1.82880692573904 
1164	 2.38954841162995 
1165	 0.973884888631187 
1166	 0.744485407121131 
1167	 0.805702138627421 
1168	 3.82128602004559 
1169	 4.82583927222264 
1170	 6.0868188482353 
1171	 6.508604586726 
1172	 6.97297166238977 
1173	 6.11298498198867 
1174	 3.844552705972 
1175	 2.35655788624425 
1176	-0.693976702434882 
1177	-1.13409612867325 
1178	 0.225870654157715 
1179	 0.947505744458523 
1180	 3.26311504505339 
1181	 4.46621511096404 
1182	 5.2037856119607 
1183	 5.23083959776922 
1184	 5.3852183635613 
1185	 3.73134851087867 
1186	-1.63932138092155 
1187	-2.85020449251633 
1188	-3.17773198970039 
1189	-2.79779891866179 
1190	 1.5936253828185 
1191	 4.36915011181756 
1192	 2.99149527400629 
1193	 2.90682028157517 
1194	 4.40232871547409 
1195	 0.846379975072212 
1196	-5.90266955957339E-02 
1197	 0.686885697262007 
1198	 0.20479936171537 
1199	-1.64151040861172 
1200	-1.15994672722771 
1201	 1.14242093364084 
1202	 0.708788194609228 
1203	-0.220852712259446 
1204	-0.583297884447243 
1205	-2.56671077355372 
1206	-3.66234227802638 
1207	-3.439687584186 
1208	-3.68521496386488 
1209	-4.59792648935266 
1210	-4.68139892789692 
1211	-3.34900653858362 
1212	-4.23189065880425 
1213	-3.01705956111095 
1214	-1.65682684231009 
1215	-0.329739561347063 
1216	 4.13497230766114 
1217	 5.62231511418627 
1218	 3.51697070420916 
1219	 3.24121458617672 
1220	 3.00712394834124 
1221	 1.89315481179758 
1222	 1.2852380313094 
1223	 1.20522122781306 
1224	-0.524735366657731 
1225	-0.720657921056138 
1226	 1.48719755667008 
1227	 2.39975688424237 
1228	 2.70905689771882 
1229	 3.65463243274684 
1230	 5.47154955579094 
1231	 5.54996379737555 
1232	 4.21848883239328 
1233	 3.70734695369924 
1234	 3.49083290034963 
1235	 2.706060165136 
1236	 2.64022550823864 
1237	 0.966446143056344 
1238	-1.77072522202119 
1239	-3.63086083488221 
1240	-3.93646765484828 
1241	-3.11593095326482 
1242	-0.916921115273289 
1243	 0.217364710573226 
1244	-0.170544980429655 
1245	 1.20516321958601 
1246	 2.29955601426424 
1247	 2.69918889421351 
1248	 5.11915636951059 
1249	 5.4978667513489 
1250	 4.53663165373169 
1251	 1.63090011909136 
1252	 0.131525410901394 
1253	-3.58782974718656 
1254	-3.76939282705496 
1255	-0.917131139846239 
1256	 0.4402041938947 
1257	 4.38853626783622 
1258	 5.65802390278953 
1259	 3.15902296473837 
1260	 3.66695081601169 
1261	 6.82170123928289 
1262	 4.41182787065385 
1263	 1.89034096233908 
1264	 1.79717805348106 
1265	-3.20204108847614 
1266	-6.64068428580457 
1267	-4.73422989806281 
1268	-3.18331490954628 
1269	-2.26093100338877 
1270	-1.33239600747923 
1271	-1.63123160943389 
1272	-1.27916862611434 
1273	 2.49673384333458E-02 
1274	 1.52440247281669 
1275	 3.94261293989242 
1276	 4.37249086361327 
1277	 3.57977859476259 
1278	 3.92520611571258 
1279	 3.77689332660614 
1280	 2.35794808482794 
1281	 2.66692685769317 
1282	 3.88644403373304 
1283	 4.33560112280345 
1284	 5.17475235002968 
1285	 5.35107062827408 
1286	 6.66984282929627 
1287	 5.73172483127901 
1288	 3.34372979963204 
1289	 0.460029091489794 
1290	-3.95673615239278 
1291	-6.59701246025371 
1292	-6.05447878084455 
1293	-5.18644756940935 
1294	-1.7570529118393 
1295	-2.93178715507403E-02 
1296	-0.911677456042019 
1297	-1.60736177245068 
1298	-1.75821982881511 
1299	-2.45202408261448 
1300	-1.67912963545821 
1301	 1.15127078530365 
1302	 3.18639427544038 
1303	 3.08580164049343 
1304	 4.05556837063975 
1305	 5.87159914797558 
1306	 3.9904899630399 
1307	 2.9083737480514 
1308	 2.11107229037996 
1309	-0.479123699304542 
1310	-0.410570618886593 
1311	-0.849979855190931 
1312	-0.952059798987568 
1313	-0.260217901061987 
1314	 0.156294338245801 
1315	 1.03896276607068 
1316	 1.17822867121634 
1317	-0.787412375258022 
1318	-1.93686415426713 
1319	-2.70574378663688 
1320	-3.29405691001496 
1321	-5.85000393644935 
1322	-5.73925971254331 
1323	-8.63631587296909 
1324	-12.6470012165125 
1325	-12.1922750936045 
1326	-12.0646875709154 
1327	-9.3004044954953 
1328	-4.9637649314677 
1329	-2.76854661369687 
1330	-0.254986424022832 
1331	 0.394936111437989 
1332	 7.46993770405406E-02 
1333	 1.25382543257272 
1334	 2.2329170247676 
1335	 0.863717930605293 
1336	-0.5537227863736 
1337	-1.54588521978805 
1338	-3.5733505759759 
1339	-4.55674821511532 
1340	-3.34184223647803 
1341	-1.39851912639848 
1342	-1.5320564329536 
1343	-0.706145858496482 
1344	 0.299187757206424 
1345	-0.195754446322781 
1346	 4.35922539607519E-02 
1347	-0.525997676559718 
1348	-1.65081086125284 
1349	-1.97664456473915 
1350	-2.92820254980199 
1351	-2.39135248511839 
1352	-0.368150192673843 
1353	-0.536747880008226 
1354	-0.755706668494557 
1355	-1.82371455332864 
1356	-4.52863945087285 
1357	-4.57701231757392 
1358	-1.86161182721097 
1359	 0.603232288939624 
1360	 1.01688797488328 
1361	 0.338719017460638 
1362	-2.21139180950474 
1363	-5.44815190317129 
1364	-8.09119641486338 
1365	-8.25788921751692 
1366	-7.10899288500273 
1367	-5.80468589582361 
1368	-3.43227463342038 
1369	-0.554700190774941 
1370	 1.01572637017194 
1371	 0.520458213223194 
1372	 0.206433394173904 
1373	-1.40351278072124 
1374	-2.60442767454752 
1375	-2.87046456629464 
1376	-5.52469470012555 
1377	-7.56333632505071 
1378	-7.20224959196504 
1379	-6.14850302375202 
1380	-3.27616086160622 
1381	 0.105216921658356 
1382	 1.9146950775536 
1383	 1.59600391501744 
1384	-0.096546496469911 
1385	 0.468528464509084 
1386	 1.52610562042124 
1387	 0.425206002770533 
1388	-1.40788389498215 
1389	-2.75918506747632 
1390	-2.08109687649995 
1391	 0.78824477853437 
1392	 1.66962689256262 
1393	 4.20646371109046 
1394	 4.89750561857366 
1395	 2.80073211032244 
1396	 0.643142388695267 
1397	 2.12061466305358 
1398	 3.66493111850366 
1399	 6.77545041170075 
1400	 8.56419847681478 
1401	 9.10924046828097 
1402	 9.53884102408505 
1403	 7.93441317578696 
1404	 5.63413431514371 
1405	 5.14189050070412 
1406	 4.64895359875012 
1407	 2.91889381891969 
1408	 3.86924346142025 
1409	 1.89680048488513 
1410	-0.720000844263688 
1411	-0.442427822569331 
1412	-1.22762038326222 
1413	-5.11545758370487E-02 
1414	 2.94771107595574 
1415	 2.74435757409066 
1416	 0.314195596007641 
1417	-0.836739896857108 
1418	-1.39661268008153 
1419	-1.25719783616502 
1420	-0.952530777109198 
1421	-2.47225239671437 
1422	-5.37568564118286 
1423	-5.00976806023302 
1424	-2.57716356525047 
1425	-0.57760483629529 
1426	 0.186296058335635 
1427	-0.812919975841441 
1428	-0.837898733265168 
1429	-0.983077494523633 
1430	 2.14677018111143 
1431	 3.71825611716002 
1432	 1.53457188049394 
1433	 3.49602464042742 
1434	 3.41906201566212 
1435	-0.515521319543744 
1436	-2.89459315880705 
1437	-4.62380456556856 
1438	-7.33152904747634 
1439	-5.50020895658645 
1440	-1.83782165890412 
1441	-3.6024987714024 
1442	-3.83602146500636 
1443	-2.97457699330331 
1444	-2.97942887919452 
1445	-1.93261875017637 
1446	 2.49024760523028 
1447	 3.69601134508412 
1448	 3.38041331726176 
1449	 2.0709500164119 
1450	-1.73771919444968 
1451	-4.18575025712068 
1452	-7.55805358779819 
1453	-7.04754936945948 
1454	-7.01510184841429 
1455	-5.95712758968333 
1456	-4.42938145226421 
1457	-5.10201653225844 
1458	-6.24230183190291 
1459	-6.02274169902407 
1460	-4.06820344225614 
1461	-2.53507738598373 
1462	 0.630283634641974 
1463	 3.56171166065573 
1464	 4.6166108946399 
1465	 5.00341046146065 
1466	 0.235649764743686 
1467	-2.99448821008973 
1468	-4.24909653707431 
1469	-5.61790272154972 
1470	-2.13058443246752 
1471	-0.2128447848866 
1472	-0.423131744997318 
1473	-0.96043951293434 
1474	-1.47692491206743 
1475	-1.10438965188385 
1476	-1.04921314248421 
1477	-0.969203105286739 
1478	 0.117493071793893 
1479	 1.50161683570704 
1480	 1.84701346879631 
1481	 3.48859084571547 
1482	 1.8651053098272 
1483	-1.00045766939501 
1484	-0.249117447469781 
1485	-0.552742813319358 
1486	-1.8421592783564 
1487	-2.71074613267872 
1488	-1.75374061980171 
1489	-2.80019444376509 
1490	-4.65647761477192 
1491	-3.26575207420255 
1492	-5.93442269248502 
1493	-8.33154909762052 
1494	-6.1466033937384 
1495	-3.27767754299065 
1496	 0.76610475136619 
1497	 2.702317609 
1498	 1.62867056813913 
1499	 0.381372333867142 
1500	 9.94450947473489E-02 
1501	 0.291521248912672 
1502	 1.74392684668971 
1503	 1.59319640523382 
1504	-3.61647647444558E-02 
1505	 1.29955756578581 
1506	 4.23707236219857 
1507	 6.71005133893851 
1508	 8.09922165339836 
1509	 9.22040582281891 
1510	 5.41103856850395 
1511	 1.08157846879636 
1512	 0.889197859602829 
1513	-3.16612671809147E-03 
1514	 1.44673296912788 
1515	 2.57628504280648 
1516	 1.41539843870473 
1517	-0.254987581474898 
1518	-3.77511573756393 
1519	-6.95677209560234 
1520	-7.00332480135301 
1521	-6.08508807089757 
1522	-5.1679759481388 
1523	-0.089187432245001 
1524	 4.04173632723275 
1525	 3.22711759377394 
1526	 3.55429508616288 
1527	 2.65172638282012 
1528	-1.45012182173154 
1529	-0.981869205576745 
1530	-0.854896223808705 
1531	-1.61911826701039 
1532	 0.74050788020952 
1533	-2.05172701700591 
1534	-3.2561352653032 
1535	-1.67870926466935 
1536	-1.60522482699385 
1537	 2.21472735833213 
1538	 3.67575864487902 
1539	 1.65254621817043 
1540	 1.2351724996779 
1541	 0.68657071136257 
1542	-0.150673521090288 
1543	 1.79176962897768 
1544	 3.72329340073596 
1545	 3.15459356928646 
1546	 3.47034034283626 
1547	 3.32398498954174 
1548	 3.05121977316912 
1549	 5.48818421142877 
1550	 5.97983182889749 
1551	 4.06124708558523 
1552	 2.55694529673673 
1553	-2.12637123141353E-02 
1554	-0.474871760621062 
1555	 0.419348236155741 
1556	 1.53615403308944 
1557	 2.48088347467625 
1558	 0.100663160772571 
1559	 0.14139040167688 
1560	 0.185365989746493 
1561	-2.54956898859488 
1562	-0.754860661453997 
1563	 0.549862856282955 
1564	 0.096816744650948 
1565	 1.83547076425512 
1566	-0.241289151160813 
1567	-2.34628074350887 
1568	-3.82941769872602 
1569	-7.46111995433626 
1570	-6.71136369546901 
1571	-4.44016624696068 
1572	-0.428062257476281 
1573	 4.41000269638045 
1574	 6.34736819266601 
1575	 7.22342192441326 
1576	 4.03839313013338 
1577	 2.38884421811537 
1578	 3.49372893562477 
1579	 2.73285946787778 
1580	 1.68384542072641 
1581	-1.25022352281142 
1582	-2.98373814796591 
1583	-3.60098567629636 
1584	-3.12802297729649 
1585	 0.806609176066305 
1586	 1.77407480232915 
1587	 1.31417593510277 
1588	 3.27841442713867 
1589	 2.42765606708338 
1590	 0.709365283947567 
1591	-0.408952755220473 
1592	-3.51251077489563 
1593	-4.16134349142839 
1594	-3.6021176694219 
1595	-3.76383984180177 
1596	-3.89066643503564 
1597	-4.17149862864482 
1598	-2.81720863012251 
1599	-3.54334340822123 
1600	-4.23663198705086 
1601	-2.84508484342676 
1602	-3.60785214527787 
1603	-3.77212727504005 
1604	-2.95871932427585 
1605	-2.83186544647361 
1606	-2.60399132679691 
1607	-1.72781533975732 
1608	 0.291160853169897 
1609	 1.68532205405837 
1610	 2.47988249570409 
1611	 1.35462916016738 
1612	-1.39217421903017 
1613	-2.79570112091683 
1614	-4.87694790618147 
1615	-4.53808492628543 
1616	-2.45753237506774 
1617	-2.90312137970046 
1618	-0.887563142259195 
1619	 2.45724733327597 
1620	 5.47969972232611 
1621	 8.35774610553596 
1622	 8.84986574766701 
1623	 6.78820900316003 
1624	 0.594851007121959 
1625	-3.86688732666186 
1626	-3.92235516510279 
1627	-4.3839374191625 
1628	-1.6249242939188 
1629	 3.53125150440017 
1630	 4.69697613751839 
1631	 4.64964050826848 
1632	 5.74148277565783 
1633	 4.48603698432605 
1634	-0.607367706129252 
1635	-0.562935345145303 
1636	 3.28857312833375 
1637	 5.2958743128723 
1638	 10.9581351387618 
1639	 12.5815983817636 
1640	 8.46921205743438 
1641	 7.24678409389373 
1642	 7.86782950393699 
1643	 6.65813320132936 
1644	 4.49012327636084 
1645	 4.08888132891482 
1646	 2.94527013112963 
1647	 1.83505650076284 
1648	 2.81290815073495 
1649	 2.72426797751277 
1650	 0.225949581885018 
1651	-9.87494159007234E-02 
1652	 1.61135413298211 
1653	 2.67139381635555 
1654	 5.35674767196272 
1655	 5.23762184944446 
1656	 3.27285840151083 
1657	 2.07562061507761 
1658	-1.63070960471722 
1659	-2.62025050229392 
1660	-1.48538194249201 
1661	-1.14016756008001 
1662	 0.445117280482769 
1663	 0.549644549268294 
1664	-0.318352987629001 
1665	-0.697609362864608 
1666	-2.59147375387569 
1667	-1.65615536125146 
1668	 2.09864439609779 
1669	 2.50127699994778 
1670	 3.00578144556788 
1671	 2.89205423768441 
1672	-0.250552632755555 
1673	-0.766626386257175 
1674	 0.321069405979384 
1675	 0.870563963326994 
1676	 1.83944506460407 
1677	 2.25224863156685 
1678	 3.46578541895789 
1679	 2.36673750262829 
1680	-0.982299079838003 
1681	-1.69626733659136 
1682	-2.94600098894391 
1683	-1.9747229606708 
1684	 0.976628924407958 
1685	 1.82297102284513 
1686	 3.47700836458149 
1687	-0.233050730706119 
1688	-0.43121587324145 
1689	 0.697345004580897 
1690	 1.35790507671995 
1691	 5.92935045906834 
1692	 7.69193298769631 
1693	 6.6671221185469 
1694	 5.84465995888362 
1695	 4.66446205496406 
1696	 2.41058185027908 
1697	-2.77511896561982 
1698	-4.52205080367457 
1699	-5.10483263289067 
1700	-5.49720505534771 
1701	-2.98650380351179 
1702	-1.6791716630521 
1703	-1.73106943747558 
1704	-0.798004834765629 
1705	 1.56433687099726 
1706	 2.43630122320275 
1707	 2.36583989187588 
1708	 3.01688689959693 
1709	 3.15981095154026 
1710	 3.94614489835947 
1711	 6.28447606742326 
1712	 6.36273263036171 
1713	 5.12706451975879 
1714	 4.43798328154418 
1715	 2.87293343746953 
1716	 2.19147372735012 
1717	 2.54548822791199 
1718	 1.64955394816169 
1719	-0.219898280816497 
1720	-0.82899183388299 
1721	-1.45111121754283 
1722	-1.42067139915974 
1723	-0.648792650822262 
1724	 0.352357400256898 
1725	 2.08910585364952 
1726	 2.20882269825503 
1727	 2.94124218737804 
1728	 5.98103252873397 
1729	 4.98339134752008 
1730	 5.08135450276517 
1731	 7.78828811615198 
1732	 7.9143389549376 
1733	 7.29931264957706 
1734	 5.53481013209981 
1735	 4.51124311215207 
1736	 2.84561224261672 
1737	 1.69123531407225 
1738	 2.24098191610143 
1739	 1.61927905914843 
1740	-6.39208390109772E-02 
1741	-0.816083054134842 
1742	-2.99342696858082 
1743	-1.85382661024265 
1744	 2.65904125986179 
1745	 3.93189501029371 
1746	 5.50076054740333 
1747	 6.63698923879413 
1748	 6.43257456385588 
1749	 5.41374817705158 
1750	 5.18714623185968 
1751	 3.37846808915368 
1752	-1.9553171672778 
1753	-4.29370591123126 
1754	-5.66576304057776 
1755	-5.76822940617569 
1756	 15.2577934948334 
1757	 12.11841395495 
1758	 10.4424731036701 
1759	 5.14133729624695 
1760	-2.36193001934596 
1761	-12.1063756217178 
1762	-5.68460611874236 
1763	 0.642291222721646 
1764	 2.67762804237098 
1765	 18.4439383131767 
1766	 18.5682182763841 
1767	-4.87605080188141 
1768	-8.51383976670482 
1769	-7.49567904407026 
1770	-3.70883055518824 
1771	 15.4190030986937 
1772	 16.762227259517 
1773	 15.4594438281013 
1774	 9.32924843809804 
1775	 4.01423237315425 
1776	-19.0106127226571 
1777	-17.0123541194041 
1778	 2.44253703191155 
1779	 11.0776943743606 
1780	 13.1439303003385 
1781	 25.8718395252773 
1782	 19.4402595688538 
1783	 9.63228574463986 
1784	 1.02305894322834 
1785	-4.5455141777578 
1786	-11.6138161113905 
1787	-15.8572903780899 
1788	-31.2899847337783 
1789	-30.9480636523694 
1790	-22.0101129574909 
1791	-12.2940484043754 
1792	 8.49913709925257 
1793	 20.2993703290738 
1794	 23.1690387834963 
1795	 16.8067991842301 
1796	 4.95111096900803 
1797	-2.19693071473187 
1798	 2.53972748734508 
1799	 6.4411757812169 
1800	 3.75382791738651 
1801	-3.7359197782228 
1802	-18.6302467812992 
1803	-17.1307370807812 
1804	-2.85191953050385 
1805	 7.83430866817356 
1806	 30.1219711425216 
1807	 53.5536820203292 
1808	 31.1928261911636 
1809	 15.7540926689711 
1810	 1.32887597205777 
1811	-31.0427722694862 
1812	-39.6885861285271 
1813	-24.1516241969844 
1814	-16.6463964568571 
1815	-0.84448221600892 
1816	 5.60273137776374 
1817	 15.4735442987561 
1818	 13.9711770378548 
1819	 6.954913171708 
1820	 4.17921269603902 
1821	 5.41158407879167 
1822	 16.8327737188253 
1823	 16.9120508598587 
1824	 16.5667691905595 
1825	 10.3553602850858 
1826	-13.6008152539507 
1827	-22.2630291086251 
1828	-31.246929435802 
1829	-30.7754637149546 
1830	-22.7674521093399 
1831	 6.52598049301049 
1832	 12.1341755245608 
1833	 16.5815952888638 
1834	 15.2706800971638 
1835	-7.06412818362952 
1836	-13.2772035597946 
1837	-13.6904484142427 
1838	-13.1871766503799 
1839	-7.08217664174181 
1840	 1.83875620778447 
1841	 5.56258556677387 
1842	 10.0288683965326 
1843	 9.06166553988603 
1844	 4.97331825612856 
1845	-3.35187310325872 
1846	-27.1844354475344 
1847	-32.1501106542397 
1848	-32.4146291851968 
1849	-28.6399176089564 
1850	-12.3506191665965 
1851	 5.23234285909651 
1852	 14.5293899733375 
1853	 20.3496056288128 
1854	 20.3995717892793 
1855	 13.3322010540415 
1856	 8.79923023685555 
1857	-2.49452630148007 
1858	-7.37938324962219 
1859	-10.104663217646 
1860	-9.90169349209577 
1861	-9.18560704401017 
1862	-4.58407510951013 
1863	 1.81327748746007 
1864	 14.8132050977924 
1865	 18.1447489688349 
1866	 16.8511197371228 
1867	 17.7703936978301 
1868	 15.2358403607522 
1869	 17.0924179741326 
1870	 12.5072702398075 
1871	 18.2775785879945 
1872	 10.9943568416745 
1873	-5.30076329982817 
1874	-11.0419767395356 
1875	-26.4272217885112 
1876	-29.9712612187822 
1877	-27.53678831072 
1878	-14.9439898276565 
1879	-4.06496293622474 
1880	 9.81016357302893 
1881	 13.8420126549548 
1882	 6.77379659528285 
1883	-2.39365951632311 
1884	-5.20637387175967 
1885	-6.48152999071554 
1886	-2.94736464920034 
1887	-2.89911817207865 
1888	-1.71496150137711 
1889	-9.44510118489469 
1890	-18.1763153428495 
1891	-25.31388651458 
1892	-24.8367475345474 
1893	-22.4106854895242 
1894	-11.2687839412428 
1895	-0.409875309514851 
1896	 2.28469313494099 
1897	 3.04362744177972 
1898	-3.66009103696244 
1899	-4.1381513285399 
1900	-5.46144011978083 
1901	-4.2962295931734 
1902	 2.74516626863362 
1903	 15.2929121240807 
1904	 23.596238936304 
1905	 19.8901503723073 
1906	 12.6763825248274 
1907	 10.3605320807197 
1908	 5.0958591519301 
1909	-4.42894732715149 
1910	-7.7193924181713 
1911	-11.0694559862949 
1912	-11.9403204454092 
1913	-9.11100377927458 
1914	-5.36471889887589 
1915	-0.122421146287877 
1916	 0.592935201399426 
1917	 0.564861088369758 
1918	 0.573899445171057 
1919	 1.52483156883709 
1920	 5.44809967276016 
1921	 4.35122044783361 
1922	 1.62846325919454 
1923	-0.946043611928361 
1924	-8.91004286658722 
1925	-11.6074659881637 
1926	-12.1991803137954 
1927	-12.792865989146 
1928	-4.15869503814922 
1929	-8.81267752603628 
1930	-7.04728565164199 
1931	-4.2504961842798 
1932	 0.214483014737151 
1933	 8.94305743774667 
1934	 13.3545020247276 
1935	 22.6234798341019 
1936	 21.3047287937558 
1937	 4.48488520641628 
1938	-2.17868358508226 
1939	-11.2980453575689 
1940	-16.0147141526335 
1941	-16.3916353817176 
1942	-7.62958448713208 
1943	-2.73255458300002 
1944	 7.06915614582189 
1945	 5.95367859588219 
1946	 2.33104264329183 
1947	-4.9331037929609 
1948	-30.3197268895728 
1949	-37.0196168328058 
1950	-32.7686210244457 
1951	-32.3045424425792 
1952	-22.9757615921753 
1953	-15.2582109639067 
1954	-16.2154064678547 
1955	-28.5786432206581 
1956	-30.5259290789014 
1957	-32.5531833678317 
1958	-33.0417526787463 
1959	-28.4272329641664 
1960	-25.9804864948294 
1961	-24.3825553871396 
1962	-23.1660287916319 
1963	-18.5645288872075 
1964	-18.6425276528279 
1965	-23.8555931303543 
1966	-28.9330580492765 
1967	-28.9953285901238 
1968	-30.5584605278363 
1969	-27.6106552945286 
1970	-16.209111746906 
1971	-10.9816898874196 
1972	-4.55112601113135 
1973	-2.2841068669455 
1974	-4.8779106323794 
1975	-5.38041922495051 
1976	-12.6034924502022 
1977	-11.4499558984343 
1978	-1.60456798128097 
1979	 7.21686724133793 
1980	 6.11116609244272 
1981	 3.20467878567433 
1982	-0.949217942613338 
1983	-20.4469004181059 
1984	-22.5572136295455 
1985	-8.45246148183407 
1986	-8.62580649847012 
1987	-11.0163752976419 
1988	-11.2684937127728 
1989	-14.8377724575305 
1990	-22.0744306334535 
1991	-31.866221862529 
1992	-36.7060813345911 
1993	-49.1437872201604 
1994	-52.3954031772167 
1995	-48.754343325579 
1996	-32.4404775899137 
1997	-23.0989680899199 
1998	-10.9629949687846 
1999	-3.87849274555763 
2000	 6.16765033703797 
2001	 7.23081073101645 
2002	 0.520283612144243 
2003	-0.992575583218814 
2004	-2.90700428187841 
2005	-13.0356398809749 
2006	-21.1540236121869 
2007	-26.0734912187354 
2008	-21.7783372397784 
2009	-15.7370993117441 
2010	-10.6903013931217 
2011	 5.01683438690382 
2012	 8.6223129468361 
2013	 4.46939757491181 
2014	 1.07454984916767 
2015	-6.87870019303238 
2016	-10.0508105533896 
2017	-16.6009260674148 
2018	-18.3220357927982 
2019	-17.3300543654332 
2020	-8.52512206664497 
2021	-0.721467242740614 
2022	 10.7363588381354 
2023	 17.9023528839098 
2024	 20.670985682451 
2025	 24.6269470256073 
2026	 25.6548486623505 
2027	 25.8778408432783 
2028	 29.3368786668045 
2029	 27.7861718310087 
2030	 18.8777213240093 
2031	 12.7108308210668 
2032	 4.82406825994323 
2033	-0.908082142053249 
2034	 1.01684040529887 
2035	-4.01753086000615 
2036	-11.1838953282952 
2037	-19.1390315079105 
2038	-34.1693453852615 
2039	-34.2687468124104 
2040	-31.013375648053 
2041	-23.4791544858106 
2042	-15.2052849046779 
2043	-1.94457907235366 
2044	 4.04129797534669 
2045	 11.2191532276816 
2046	 11.3837159351888 
2047	 0.862747346778428 
2048	-1.14673682303903 
2049	-0.547967931471612 
2050	-4.07160512939848 
2051	-2.55745285998389 
2052	-0.760721710939874 
2053	-10.9937833038033 
2054	-8.28090219505198 
2055	-0.532729946007829 
2056	-6.7576876126731 
2057	-10.9279012321581 
2058	-13.4296625628118 
2059	-15.2551264074664 
2060	-24.2572485044604 
2061	-19.6101680214038 
2062	 0.575240361504471 
2063	 7.72178279694075 
2064	 12.6077822656942 
2065	 23.4307992252091 
2066	 22.0508422348739 
2067	 8.95149090482693 
2068	 1.40741477906388 
2069	-10.0972622623016 
2070	-17.4630846845686 
2071	-14.0704406492109 
2072	-9.22201462951784 
2073	-2.35526023768846 
2074	 12.8577142839577 
2075	 13.841829431043 
2076	 10.9292610687132 
2077	 7.43800021318636 
2078	 1.97594743109603 
2079	-22.5755204104327 
2080	-24.0128865375432 
2081	-8.39563939427816 
2082	-11.4537692792584 
2083	-8.76870594645663 
2084	-3.56763218744435 
2085	-16.1228142937131 
2086	-13.9373892049995 
2087	-2.7060978238145 
2088	 9.15246376185486 
2089	 21.7856745825882 
2090	 21.3147888726973 
2091	 20.0994305900492 
2092	 16.1245880504023 
2093	 11.7369995531749 
2094	 12.2031685967956 
2095	 5.99949816782865 
2096	-7.35636747150459 
2097	-13.77576148276 
2098	-19.7311542241843 
2099	-30.6692263434708 
2100	-26.6457496657217 
2101	-24.953774982984 
2102	-12.6285194017149 
2103	 10.1375055750111 
2104	 21.3215407981608 
2105	 37.0817103675742 
2106	 40.424623261801 
2107	 38.0504358477954 
2108	 31.5329072293492 
2109	 15.8082578504228 
2110	 6.38878683761612 
2111	 0.493734673473838 
2112	 3.25983143814299 
2113	 12.905648180101 
2114	 19.0026975641738 
2115	 26.2036956338051 
2116	 22.9303255850119 
2117	 13.0169914081396 
2118	 8.50648620840417 
2119	-3.44273104956546 
2120	 0.219978482217313 
2121	 3.19162357650482 
2122	 1.52558760853789 
2123	 0.92312640802669 
2124	-3.75660590619279 
2125	-5.80233497255539 
2126	 1.37703951714121 
2127	 9.70024129375188 
2128	 12.3631754700843 
2129	 17.0606860285853 
2130	 13.3805396647628 
2131	 4.03377442768857 
2132	-1.01221286150937 
2133	-19.1120572315287 
2134	-37.036646838175 
2135	-46.904630123472 
2136	-64.4158104928548 
2137	-64.2981452589231 
2138	-41.7531168368975 
2139	-30.6392261877378 
2140	-15.719054390992 
2141	 1.53213818024412 
2142	 4.0145168115692 
2143	 10.0764948086213 
2144	 7.64324992749084 
2145	-2.03639304130082 
2146	-15.6478677073893 
2147	-31.4621408069834 
2148	-33.0364708899307 
2149	-28.8691059416127 
2150	-17.8250748890309 
2151	-11.695989279828 
2152	-13.2712279331164 
2153	-12.6842745930745 
2154	-14.335570964403 
2155	-12.6996479402045 
2156	-13.010415124963 
2157	-20.3422940389371 
2158	-24.9075076449598 
2159	-33.5156498084277 
2160	-38.2290372482318 
2161	-38.8123856178076 
2162	-37.2599328124028 
2163	-35.9996751398117 
2164	-25.4709914752824 
2165	-15.9020284343345 
2166	-9.19761539888224 
2167	-10.1678869609473 
2168	-13.6885603660211 
2169	-9.51041165974178 
2170	-20.9210788919264 
2171	-26.1404052684589 
2172	-24.2215223095761 
2173	-33.251574835584 
2174	-32.664039608721 
2175	-32.9388594379207 
2176	-37.4186570530548 
2177	-27.4914762457914 
2178	-18.5977242142677 
2179	-8.13199733493877 
2180	 11.6566702553464 
2181	 11.3919422249793 
2182	 3.92802087602737 
2183	 7.05260035272937 
2184	 13.4973369679565 
2185	 14.1614396468674 
2186	 22.1905346555449 
2187	 23.0083779160922 
2188	 14.9791394635393 
2189	 11.9045199658637 
2190	 8.01368918947724 
2191	 7.39361417812141 
2192	 5.44930980515773 
2193	 0.55330538055256 
2194	-5.64500520204997 
2195	-3.18685184601739 
2196	-9.45900662072061E-02 
2197	 4.12527525481711 
2198	 16.330270472588 
2199	 18.792330047259 
2200	 22.9590284119618 
2201	 19.674550145915 
2202	 6.53955980689685 
2203	-0.245085136988827 
2204	-1.24818679942925 
2205	-6.18806299444522 
2206	-4.30003163232775 
2207	 3.34428386949048 
2208	-0.339896021295917 
2209	 5.43366233549827 
2210	 10.6964908289281 
2211	 17.8722177408182 
2212	 20.8578541986961 
2213	 23.8662106493932 
2214	 24.9154337124155 
2215	 22.1878837458764 
2216	 20.553853122008 
2217	 18.3370804946244 
2218	 16.6130618395811 
2219	 15.8393252717905 
2220	 13.0413502902738 
2221	 7.78419545885991 
2222	 10.0049750233569 
2223	 7.8409116764268 
2224	 3.30275099582534 
2225	 1.05214250352876 
2226	-4.87821489157544 
2227	-10.3777998812322 
2228	-15.677809990821 
2229	-18.0012533570556 
2230	-11.4815981202798 
2231	-4.92416130615984 
2232	 3.8565193218953 
2233	 22.4196425726421 
2234	 26.2883059724164 
2235	 18.4544454696859 
2236	 17.4577569344565 
2237	 2.76296972512824 
2238	-9.30650467821181 
2239	-11.7669167394058 
2240	-22.2464269659224 
2241	-23.7523545249709 
2242	-20.8552150555209 
2243	-15.4940779520487 
2244	-0.221379709250996 
2245	 4.98391472555342 
2246	 9.83442812216889 
2247	 11.637919356479 
2248	 5.74633772335457 
2249	 5.0665841803476 
2250	 6.98382476061907 
2251	 2.58084600566083 
2252	-9.29627119877298 
2253	-10.7661033759894 
2254	-10.166442536662 
2255	-10.2530971346711 
2256	-0.475098608673663 
2257	 1.89685871881624 
2258	-11.6789138510755 
2259	-16.280627908283 
2260	-26.9755852230635 
2261	-29.7622688495934 
2262	-21.4496701421757 
2263	-20.3675072959516 
2264	-28.2265260261063 
2265	-43.9742665114229 
2266	-63.6760542381626 
2267	-82.4194213057385 
2268	-79.5431025411909 
2269	-63.7408572088644 
2270	-44.5051612064719 
2271	-27.3072981130598 
2272	-17.6341954030736 
2273	-7.54694258571077 
2274	-5.52892772064322 
2275	 0.404161402094539 
2276	 5.35774173628728 
2277	 0.702602496460894 
2278	-0.367459116791289 
2279	 3.28417210415522 
2280	 6.30286957271944 
2281	 13.0568481088436 
2282	 12.1707227230428 
2283	 3.18281450294227 
2284	 4.38603462912835 
2285	-7.07736957662413 
2286	-7.89270584254882 
2287	 6.90285728378612 
2288	 7.43576809401638 
2289	-0.224637456895112 
2290	 4.84292709884736 
2291	 9.14410473346212 
2292	 14.4134342263169 
2293	 33.0653009026533 
2294	 36.5884242081632 
2295	 28.6742872474403 
2296	 24.0065789206626 
2297	 15.2507695005308 
2298	 10.5281796728738 
2299	 9.41968613633074 
2300	 5.73332843119971 
2301	 2.88856441245723 
2302	-4.74719019941131 
2303	-22.8964707885073 
2304	-27.7568144590479 
2305	-29.2451661556349 
2306	-25.362500244388 
2307	-5.05736166507735 
2308	 3.3551227379271 
2309	 9.5753949680298 
2310	 9.10457087997748 
2311	 11.2123711525002 
2312	 12.8705072663956 
2313	 4.59391178086037 
2314	-0.495422196164144 
2315	-11.8344790500525 
2316	-22.7667502920271 
2317	-15.6572418185907 
2318	-6.68415402926297 
2319	 7.208074939054 
2320	 13.4563025908809 
2321	 12.6442427043571 
2322	 13.6451678483543 
2323	 7.27376549007938 
2324	-0.395961641062067 
2325	-7.68662575409224 
2326	-10.7065318942453 
2327	-14.8810599001675 
2328	-9.17394234458389 
2329	 1.69609069384063 
2330	 4.33233409722959 
2331	 9.79258783926274 
2332	 8.98293428365703 
2333	 17.0540587890434 
2334	 20.0675995825978 
2335	 14.2991544974661 
2336	 18.0606814114685 
2337	 6.11917584427128 
2338	-1.21695948781419 
2339	 4.73669463698387 
2340	 7.08955594540325 
2341	 14.5239879239444 
2342	 19.3181581608193 
2343	 23.1826625604534 
2344	 26.8308043672257 
2345	 11.2109679028183 
2346	 3.29548556397246 
2347	-5.60778808923304 
2348	-28.489701304006 
2349	-24.0665742127874 
2350	-16.571840027397 
2351	-10.8885379524981 
2352	 9.11255481896025 
2353	 17.4491187382725 
2354	 18.2356377597038 
2355	 21.8219606167224 
2356	 20.1978791421912 
2357	 19.5746038845531 
2358	 24.8095000718796 
2359	 26.7464512893803 
2360	 25.8862218829875 
2361	 23.4771608968276 
2362	 15.7583066912915 
2363	 8.35162011187046 
2364	 3.96607568307753 
2365	 5.78247110157989 
2366	 6.07304738037945 
2367	-1.39301055130426 
2368	-7.37882015169046 
2369	-17.8478294784736 
2370	-24.8543705352104 
2371	-20.6988533927 
2372	-20.4882578070369 
2373	-19.3040404736273 
2374	-14.9285632609445 
2375	-19.3002206865464 
2376	-23.288488627271 
2377	-25.8169087188159 
2378	-31.8989500180937 
2379	-24.0973703561737 
2380	-7.71830903392839 
2381	 3.25062884338269 
2382	 20.6306620494138 
2383	 27.6453548557914 
2384	 20.0611971992108 
2385	 15.7790145001076 
2386	 12.5789959533014 
2387	 9.09544093647073 
2388	 11.3344411075097 
2389	 12.6809598151048 
2390	-1.63784284663063 
2391	-7.10365385475316 
2392	-16.384525863433 
2393	-30.3920802887025 
2394	-29.086193503191 
2395	-32.4975673954147 
2396	-30.5851396884627 
2397	-25.1535402165488 
2398	-15.9324926230596 
2399	-2.73683842415139 
2400	 6.33614838113005 
2401	 8.59071174843734 
2402	 4.97536741100174 
2403	 0.419482856830868 
2404	-14.4895022659664 
2405	-14.7182713079721 
2406	-8.58984843459447 
2407	-13.6121728890224 
2408	-2.58516582297592 
2409	-0.143815410597265 
2410	-0.39165813270239 
2411	 13.0143224008958 
2412	 14.7077681095271 
2413	 19.2166837214972 
2414	 24.095768385791 
2415	 19.2091180116651 
2416	 20.7930754489843 
2417	 25.6089451117622 
2418	 25.9112511363805 
2419	 27.155227629101 
2420	 30.2147077620692 
2421	 30.5930425348838 
2422	 25.6929928091473 
2423	 14.0618422805263 
2424	 7.39374461312803E-03 
2425	-16.8764124643141 
2426	-31.4601377061285 
2427	-26.30701631722 
2428	-20.0281704488994 
2429	-14.0736574805675 
2430	 1.17640106943598 
2431	 7.41848783257006 
2432	 15.141158575259 
2433	 17.4926451350575 
2434	 23.0014941053878 
2435	 28.8711788173676 
2436	 18.8440799053692 
2437	 18.685011782501 
2438	 6.30561548284733 
2439	-14.0378636032393 
2440	-17.4542651677116 
2441	-23.7271460883258 
2442	-22.0140794455941 
2443	-5.57082775944585 
2444	 5.35755718643769 
2445	 10.5234272153673 
2446	 11.9001901787698 
2447	 12.3689596772856 
2448	 16.7368744442597 
2449	 24.1141399641336 
2450	 30.034239774136 
2451	 28.1429621006684 
2452	 15.4015001891175 
2453	 2.50340957924579 
2454	 5.32127527796996 
2455	 0.180614968201282 
2456	-2.85079658545793 
2457	 7.29026202074878 
2458	 3.7123915696123 
2459	 8.15862904442204 
2460	 15.8655826012593 
2461	 7.49435555745637 
2462	 3.79008630523338 
2463	-5.05850203386863 
2464	-8.39061924975116 
2465	 0.750310473078903 
2466	 1.14311958875392 
2467	 10.8517720129578 
2468	 5.983137294589 
2469	-0.424258322844263 
2470	-1.28192234686312 
2471	-7.2590190820423 
2472	-13.0617900556356 
2473	-3.09342522629042 
2474	-0.140675160020123 
2475	 3.82532727396299 
2476	 18.2351600578095 
2477	 24.1176026926323 
2478	 25.8840720848307 
2479	 24.4159442561334 
2480	 15.6509177679321 
2481	 0.93681071356015 
2482	-1.68965825684521 
2483	 8.41661168491325 
2484	 14.8940977629142 
2485	 25.6454624100844 
2486	 30.3518693002534 
2487	 20.2210099961704 
2488	 10.6217578050934 
2489	-0.3331553491488 
2490	-3.79170555049044 
2491	 1.16305400848328 
2492	 5.3039748952263 
2493	 9.71946870088787 
2494	 9.78339787178535 
2495	 5.32219592288185 
2496	 1.22520374560514 
2497	-0.335119841054484 
2498	-5.97165339318524 
2499	-7.67502369081265 
2500	-3.27213750172719 
