Wavelength	3mm_blackPETG00000.asd
350	 1.1967652774492 
351	 0.695600462234953 
352	-0.231677720136892 
353	-0.175416148611626 
354	 0.240727049304204 
355	 0.624405236187384 
356	 0.58586745736167 
357	-0.519210934632096 
358	-1.05686970368152 
359	-0.406358005535496 
360	 1.11780107997908 
361	 0.121517599863718 
362	-0.688017466134482 
363	 1.14658496519823 
364	 0.448472418213399 
365	-0.582464549059032 
366	-0.586021024404378 
367	 0.578846692815979 
368	 1.43062307547484 
369	 1.00387914691307 
370	-0.813829377629555 
371	-0.12340442193113 
372	 5.52817599082645E-02 
373	-1.4386994050708 
374	-1.13242302802212 
375	-0.355331547396393 
376	 0.649634968124502 
377	 1.92467450491407 
378	 2.5178508346957 
379	 1.23637014092633 
380	-1.53771382653917 
381	-0.880968633873096 
382	-5.63706439654158E-02 
383	-9.65602475052211E-03 
384	 0.224250262754952 
385	 0.36308372573059 
386	 6.72343178717113E-02 
387	-0.865859926590762 
388	-2.05529658851655 
389	-2.4777192018495 
390	-1.77306309577599 
391	-0.400481298949059 
392	-0.608448168032324 
393	-1.29105333864043 
394	-0.245902378771635 
395	-0.153560077202489 
396	-0.540563742404389 
397	-0.580112711844214 
398	 0.625378149231763 
399	 1.05262653061574 
400	 0.424714891443655 
401	-0.166444168046317 
402	 0.632910774944644 
403	 1.26643888989398 
404	 0.374422615421877 
405	 1.14814803273848 
406	 1.80071017640303 
407	 1.37431053328427 
408	 0.335616643282269 
409	-0.729853966781692 
410	-1.11267521781443 
411	-0.317657691790947 
412	-0.418870595063801 
413	 7.37719660587551E-02 
414	 1.58812921618189 
415	-5.83719991383352E-02 
416	-0.670137426588502 
417	 0.422006677926606 
418	 0.850317033385555 
419	 0.391095407561163 
420	-0.192272109707469 
421	 2.16151144301524E-02 
422	 0.795393383799308 
423	 0.902445170843312 
424	-0.122409099538162 
425	-1.51572735693781 
426	-1.38600140671537 
427	-0.658153925225729 
428	-1.64193725670775 
429	-0.153292720263535 
430	 1.28756644347834 
431	 0.438203806833741 
432	 0.869719093931633 
433	 0.75233117023893 
434	-0.180465421953157 
435	-5.91114455800547E-02 
436	-0.501012540809576 
437	-0.682898527038548 
438	 0.689162702573653 
439	 0.443437396797541 
440	 3.48154686745154E-02 
441	 0.482369697870706 
442	-8.31783560261758E-03 
443	-0.617628844471423 
444	-0.707961395116909 
445	 0.270014769143147 
446	-0.041319272224778 
447	-0.479094552644663 
448	 0.504823107213242 
449	-0.499995005082642 
450	-0.455930342198026 
451	 1.3644411846704 
452	-0.724137807326635 
453	-0.717026112041028 
454	 0.82466479612656 
455	-0.834829143190142 
456	-1.50336091263789 
457	-0.998456907134115 
458	-0.282213351481872 
459	-1.29771474289755 
460	-1.22194389461805 
461	 0.412111960374204 
462	-0.665548734458433 
463	-1.69046337327812 
464	-1.78816006646995 
465	-0.949472545665743 
466	-0.145606525055085 
467	-3.95406328787961E-02 
468	-0.813509477060845 
469	-1.27633679422872 
470	-1.12800461680483 
471	-0.66648612112174 
472	-1.19599161627519 
473	-0.691539871033105 
474	 0.293181181211634 
475	 5.13165716211371E-02 
476	-1.07724832774571 
477	-1.77643372993501 
478	-1.17769042471413 
479	-0.487554561978618 
480	-0.675894083659915 
481	-1.45932083305237 
482	-0.718500252165237 
483	-0.841828051349803 
484	-1.75813441811715 
485	-2.29836164887558 
486	-1.43174375604033 
487	 7.76476732654834E-02 
488	 0.975344732807243 
489	-0.769924266456418 
490	-1.91368979469687 
491	-1.67020395265866 
492	-2.45457283479105 
493	-2.97847244709136 
494	-2.27360378725714 
495	 0.177528738076272 
496	 0.569147520090379 
497	-0.910902932421131 
498	-2.75942342273507 
499	-1.2034658840255 
500	-0.950518484587187 
501	-2.69749471563308 
502	-1.94760626830062 
503	-0.826675645807733 
504	-0.591080858484148 
505	-2.05912313888269 
506	-3.02263360692569 
507	-2.89535535296051 
508	-1.91866216564092 
509	-2.21074684109802 
510	-1.33203735085652 
511	 0.506252124123786 
512	-0.619879690990106 
513	-1.90258718051393 
514	-2.15095064139117 
515	-0.991118349943889 
516	-1.35736060874887 
517	-1.85035460144459 
518	-1.13730613721828 
519	-0.808582693809691 
520	-1.04803157826467 
521	-1.59852799347753 
522	-1.5440786765318 
523	-1.80484636731839 
524	-2.06959226517517 
525	-1.567438289542 
526	-1.52342125590946 
527	-1.68564909349074 
528	-1.71107293725276 
529	-2.06615430657473 
530	-2.42112348802504 
531	-2.54243830941041 
532	-2.44398657209075 
533	-0.993933952288269 
534	 0.323769981929956 
535	-1.22764338138232 
536	-1.91280303733078 
537	-1.44365697578706 
538	-0.628394085650599 
539	-1.77647071987331 
540	-2.61224807041665 
541	-2.13002879448759 
542	-1.77634043093467 
543	-1.99269943962885 
544	-2.67021050426833 
545	-3.20152915955841 
546	-1.73581959430734 
547	-0.586225880448627 
548	-2.08431416034288 
549	-2.96743115012259 
550	-2.59104187027377 
551	-1.3534853786559 
552	-1.62632794978878 
553	-0.408751840805673 
554	 0.92306554188666 
555	-2.25498455144275 
556	-2.80226613623594 
557	-1.95804206574135 
558	-2.6995259017835 
559	-2.62598234623877 
560	-1.36082885830032 
561	 0.46614132150604 
562	 0.202175958155251 
563	-1.04872626059433 
564	-2.07686608138113 
565	-1.3053484013534 
566	-1.96248247128947 
567	-2.52939742655763 
568	-0.548302113449537 
569	-0.556047530342191 
570	-1.14916090011358 
571	-1.11038469718227 
572	-2.18511085127895 
573	-3.20009607306108 
574	-3.39501615220159 
575	-2.32759509988903 
576	-1.43489933759128 
577	-1.223201286243 
578	-1.72231157391999 
579	-2.0814841608626 
580	-2.93661135383003 
581	-4.31526349002002 
582	-3.00312261621802 
583	-1.10151013042063 
584	-0.224726353449056 
585	-1.57414250610984 
586	-1.72929044446013 
587	-1.08266329377873 
588	-1.92726252772732 
589	-2.40756202384251 
590	-1.82274376079031 
591	-0.403249152615739 
592	-1.66750026893112 
593	-2.3855171404678 
594	-1.30653306566344 
595	-1.44687985361723 
596	-2.44777336849152 
597	-3.12478798260088 
598	-1.542042097705 
599	-1.7908202556404 
600	-2.62289227975134 
601	-1.92573649680937 
602	-1.95326572217384 
603	-2.05778103382212 
604	-1.75325629397269 
605	-1.39826882735719 
606	-1.71731837847362 
607	-2.51195739802045 
608	-2.68240352883883 
609	-3.55824616733626 
610	-3.85741752769233 
611	-1.89850678127192 
612	-0.425838235852625 
613	-0.224507655259584 
614	-1.27254481620122 
615	-2.24350195788974 
616	-2.71520585159015 
617	-2.33088194769804 
618	-0.561638061621554 
619	-1.12713605241501 
620	-2.78705276711932 
621	-2.32584054663615 
622	-2.58921574449669 
623	-2.62624229082138 
624	-1.59615638142715 
625	-1.44232814352222 
626	-1.83556816855789 
627	-2.33481477207299 
628	-2.30557551955491 
629	-2.58221112434242 
630	-3.1943696612778 
631	-3.73588929504809 
632	-3.94329675417428 
633	-3.30803787494251 
634	-1.81360087995811 
635	-1.86884833634997 
636	-2.62821893424855 
637	-3.31947477738147 
638	-3.80239360884008 
639	-3.34034282446861 
640	-2.10811117312823 
641	-1.01509649293711 
642	-1.20845279381786 
643	-1.82376404404607 
644	-1.70849186598907 
645	-2.61104536091156 
646	-3.10234722355196 
647	-2.46704712586307 
648	-2.49530960753748 
649	-2.37124462292301 
650	-1.87849716214386 
651	-1.26276941264845 
652	-2.62908788832541 
653	-4.13464309717468 
654	-2.9334204586763 
655	-1.89570303883052 
656	-1.98543829425286 
657	-3.02636055922717 
658	-2.02747284610487 
659	-1.85182673563151 
660	-2.68335865323294 
661	-1.09519382785961 
662	-0.584102596361245 
663	-1.22301687096507 
664	-1.69463860053197 
665	-2.57856770979183 
666	-2.9342723749688 
667	-2.31571164864604 
668	-3.25704014612025 
669	-3.29258847266258 
670	-2.08472747769802 
671	-3.15406091194167 
672	-3.33160115477283 
673	-2.55273620562395 
674	-2.27145716355709 
675	-1.70238403854139 
676	-1.30970738164024 
677	-1.54086289141693 
678	-1.49601601156702 
679	-1.85588835098583 
680	-2.67142998103081 
681	-2.6543387839287 
682	-1.59761573117993 
683	-0.984785350302675 
684	-3.53988855251782 
685	-3.77285482654036 
686	-2.71597183611245 
687	-2.59395906964033 
688	-1.15516607763491 
689	-0.820767403248035 
690	-2.48334749318491 
691	-2.86907854490351 
692	-3.22919329466503 
693	-3.59549331021513 
694	-3.10764138067761 
695	-2.68266909887969 
696	-2.29255297172446 
697	-1.77588935649307 
698	-2.20815578740743 
699	-2.65121745348912 
700	-2.44584437529867 
701	-2.13822896720651 
702	-1.93938925425967 
703	-1.9555773670428 
704	-2.19626961936217 
705	-2.17533665937107 
706	-2.25398761328063 
707	-2.95866546620253 
708	-3.49963862324364 
709	-2.82609359686837 
710	-1.13243901439589 
711	-2.47497346647036 
712	-3.34192237392462 
713	-2.87284189573468 
714	-3.15443923038793 
715	-2.87276036624175 
716	-2.49042877059111 
717	-2.91388620788972 
718	-2.38571964992951 
719	-2.50000942077916 
720	-3.91516491653919 
721	-2.50902185230538 
722	-2.02582418281374 
723	-2.93770474624539 
724	-1.42441303089138 
725	-1.50423763441353 
726	-2.62695729469498 
727	-2.56555265794299 
728	-2.66186067824084 
729	-3.18482173909896 
730	-3.72777842243882 
731	-1.90944955763486 
732	-0.438952182413421 
733	-0.554360724957312 
734	-1.75769668285959 
735	-1.7914073376148 
736	-1.36547301694316 
737	-2.33275103635825 
738	-2.15350297537109 
739	-1.98496178264525 
740	-2.71659266242618 
741	-2.09857579124862 
742	-1.58176863984297 
743	-1.90388504504097 
744	-2.97843776869873 
745	-3.10437240367346 
746	-2.18530755083497 
747	-1.07301479422233 
748	-2.2574910309345 
749	-3.51366814348033 
750	-2.88601622301972 
751	-2.0420192728325 
752	-1.12323275852368 
753	-0.62824143767441 
754	-1.68137566483051 
755	-2.54847100781575 
756	-3.10442092084777 
757	-3.83033688575263 
758	-4.3250660163573 
759	-4.28468699302987 
760	-3.55099139078529 
761	-2.19309639617773 
762	-1.15336402780866 
763	-0.907105488544543 
764	-1.45243547407985 
765	-1.84442503991242 
766	-2.4135407092022 
767	-3.64439077058742 
768	-2.23427855926494 
769	-1.16228886904333 
770	-2.40440389361523 
771	-2.72263117993678 
772	-2.7734584196117 
773	-2.76594297363282 
774	-2.51260341961605 
775	-1.55705113715054 
776	-1.10626992919068 
777	-2.42912303009838 
778	-2.5319223161248 
779	-2.59177509567879 
780	-3.256438775163 
781	-2.63427463860438 
782	-2.02592838035915 
783	-1.85828487894019 
784	-1.90527738063049 
785	-3.23609611082347 
786	-4.60433723061702 
787	-4.34401066856628 
788	-2.18676430427079 
789	-2.11563099606603 
790	-4.74393394471361 
791	-3.00754477358505 
792	-1.73840944904164 
793	-2.20154925327828 
794	-3.59255387026602 
795	-2.89179326843646 
796	-2.23795458210396 
797	-3.48287851966326 
798	-1.32376207467276 
799	-0.471298461801244 
800	-2.09788080139714 
801	-1.09121286787274 
802	-2.29333527406057 
803	-4.45892227233074 
804	-3.93909448968578 
805	-3.48334308144347 
806	-3.01516948175884 
807	-2.27930377010711 
808	-1.80008592623092 
809	-1.66094180114852 
810	-1.77520122807914 
811	-1.8522250309506 
812	-2.77404208958393 
813	-2.9545505189527 
814	-0.918309887327509 
815	-2.16429995692442 
816	-3.90329357700676 
817	-3.85520950162026 
818	-2.34982397386702 
819	-1.61549396999169 
820	-1.4070520941044 
821	 0.123816254240808 
822	-0.528129131810076 
823	-2.1149214444076 
824	-2.75481454795748 
825	-2.81081444393527 
826	-2.81456862290417 
827	-2.66209801336079 
828	-1.14533170956158 
829	-0.992301150383101 
830	-1.94373605808973 
831	-2.5539894093135 
832	-3.32046899603095 
833	-2.98091449436081 
834	-1.27810320392589 
835	-1.09668288261656 
836	-0.511365772672334 
837	-0.022078853890261 
838	-1.95476112038232 
839	-2.12073640471333 
840	-1.78977275507695 
841	-2.82980085568185 
842	-3.09915635439086 
843	-2.21428591646387 
844	-1.08773662036495 
845	-2.7302126713548 
846	-3.50878574741036 
847	-2.82771726711067 
848	-1.49726611498214 
849	-1.07171060665556 
850	-1.30736194533141 
851	-1.77854151985724 
852	-2.4798717194956 
853	-2.08203664409657 
854	-1.37399074707279 
855	-2.6511455263771 
856	-2.56672640389953 
857	-2.51072115043047 
858	-3.67234082672946 
859	-1.51168625285111 
860	-1.01634954419591 
861	-2.78125273364909 
862	-1.40376478059827 
863	-1.75546716009503 
864	-3.17509202799967 
865	-3.33611071329957 
866	-2.02276338601171 
867	-1.6579438101631 
868	-2.96397145443274 
869	-2.84943555213144 
870	-2.5108752435193 
871	-2.31246882317854 
872	-2.32160863522091 
873	-2.73994805897973 
874	-2.74257011177833 
875	-2.03292910601117 
876	-2.34695164210258 
877	-1.99813245002831 
878	-1.33593868290256 
879	-2.25921652489021 
880	-1.88616712426055 
881	-0.798284919982895 
882	-0.264121567416692 
883	-0.880541210734557 
884	-1.53048040498357 
885	-1.79969180568251 
886	-2.13967005130142 
887	-2.26447291385482 
888	-2.24691279878712 
889	-2.36595156250837 
890	-3.63734649930182 
891	-3.46739650665039 
892	-1.56277697627507 
893	-1.54451003973659 
894	-2.27092390910632 
895	-2.82704646700504 
896	-2.49665721606931 
897	-2.65582020923858 
898	-2.70747246996117 
899	-2.3390571356397 
900	-2.20442020983698 
901	-2.02586779026905 
902	-1.73781230263223 
903	-1.41424646999374 
904	-1.68409337118005 
905	-1.98578755388362 
906	-2.06865409962656 
907	-2.9566332275225 
908	-3.04210230063491 
909	-2.20310603955493 
910	-1.29732786893699 
911	-1.66340410604628 
912	-2.35069917796962 
913	-2.4144251361386 
914	-1.94890286642552 
915	-1.86799937624288 
916	-1.63647617430787 
917	 1.31147372246854E-02 
918	-1.10465437558755 
919	-2.63017416438293 
920	-2.37019328539682 
921	-2.25093980999253 
922	-1.64715257399961 
923	-1.1093758516114 
924	-1.90074782050116 
925	-1.99544430968465 
926	-1.93488836940074 
927	-2.2757747879043 
928	-1.9211368108677 
929	-2.7211771802437 
930	-3.53112302603855 
931	-1.28398633329893 
932	-1.32717375419428 
933	-2.77273008430117 
934	-3.69485182499308 
935	-2.74055080998972 
936	-2.48568206556575 
937	-2.3888735563305 
938	 5.45848442411859E-02 
939	 0.803401381071572 
940	-9.61288281210909E-02 
941	-1.69010243249702 
942	-3.04690031537982 
943	-2.51728868537945 
944	-0.859677470546235 
945	-0.373609860699218 
946	-0.314886993166587 
947	-1.31843332836168 
948	-3.26768069327193 
949	-4.00020781783919 
950	-2.56914267834273 
951	-0.970522662560921 
952	-2.28196184231815 
953	-1.35109391909245 
954	-0.95876840024442 
955	-2.55681774053107 
956	-2.67082932358993 
957	-2.89003122331989 
958	-2.94549710443429 
959	-2.17994427594797 
960	-2.5653465892927 
961	-3.06590333744824 
962	-3.05395164359601 
963	-3.04323125271509 
964	-2.68685065407537 
965	-2.39364249415948 
966	 1.60687809064019 
967	 1.71894940865287 
968	-0.53932062401581 
969	-1.68759679103075 
970	-3.44665190906559 
971	-4.12853610015181 
972	-3.15470538632056 
973	-2.22223419036323 
974	-1.06493911653046 
975	-0.89420954072362 
976	-9.67614274554931E-02 
977	-1.8499665800669 
978	-3.45562027926485 
979	-0.863531688209317 
980	 0.721513166771443 
981	-0.810098950914011 
982	 0.879965886658615 
983	 0.850875744869249 
984	-2.77226891096222 
985	-1.04194073483951 
986	 9.32942760130496E-02 
987	-1.22268327359101 
988	-0.710079882596417 
989	 4.8304329229403 
990	 4.77274314363977 
991	 1.82066128811977 
992	-0.411579023207513 
993	-4.90211282290022 
994	-8.85317784454313 
995	-8.57400432121945 
996	-5.9405058561889 
997	-1.15545277251429 
998	 3.88168808512776 
999	 6.63824835985785 
1000	 5.62612824967002 
1001	 4.55902071205582 
1002	 2.72255403585191 
1003	 0.693027745887285 
1004	 1.47224136843387 
1005	-0.38500124656002 
1006	-5.74421093569441 
1007	-6.08717888394284 
1008	-4.03751450793808 
1009	-5.24461692748421 
1010	-5.76330246365467 
1011	-3.15051797313647 
1012	-3.39806572007157 
1013	-2.79122816884032 
1014	-0.215406649289313 
1015	 2.00756932711067 
1016	 1.23726189622894 
1017	-1.55891449804474 
1018	-1.79092846250618 
1019	-3.8573078197741 
1020	-3.82492482068903 
1021	-2.33120725767002 
1022	-6.83089524614961 
1023	-7.43780491172234 
1024	-6.454949857906 
1025	-2.39634825511229 
1026	-1.01261674485767 
1027	 1.07025851438011 
1028	 2.58369343781557 
1029	-1.07131412918845 
1030	-4.24945644144093 
1031	-2.36562404697481 
1032	-2.24585777102926 
1033	-2.519901775151 
1034	-0.995632067509241 
1035	-1.6642739069907 
1036	-2.02532230364937 
1037	-1.56842269008626 
1038	-1.36914468370459 
1039	-0.561375789501318 
1040	 6.04333421467072E-02 
1041	 2.17124016039268 
1042	 2.95046248407151 
1043	 3.14712178573312 
1044	 2.17828719021507 
1045	-0.355205417718941 
1046	-2.04963937493436 
1047	-5.37805859543845 
1048	-8.42183437459586 
1049	-7.67381455780375 
1050	-5.67237272888943 
1051	-5.32684303861727 
1052	-4.60833306173779 
1053	-4.55729441633454 
1054	-4.50412643641408 
1055	-2.47388950676315 
1056	-3.66427538126661 
1057	-3.29101432204916 
1058	-2.84984732520699 
1059	-2.55966048670006 
1060	-0.658751678529356 
1061	-0.186883691532314 
1062	-1.08550973607141 
1063	-0.702909219032717 
1064	-2.41742351068042 
1065	-3.41224347619059 
1066	 0.923808264097525 
1067	 2.37902131741632 
1068	 1.16665178136412 
1069	 2.23643228198991 
1070	 2.75068092480048 
1071	 0.861035458402391 
1072	 1.14537981770926 
1073	 2.90564400264644 
1074	 3.24287703415559 
1075	 1.03236583723979 
1076	 1.56743389878666 
1077	 4.43326254864477 
1078	 4.85310170354478 
1079	 4.61580707651286 
1080	 4.49358558901646 
1081	 3.43960104642347 
1082	 2.83072719003758 
1083	 3.23905954261036 
1084	 2.17035173929457 
1085	-0.173923357791968 
1086	-1.8328500727866 
1087	-1.45769283746197 
1088	 0.303954574941187 
1089	 4.45479782966386 
1090	 8.2185379904225 
1091	 7.56710956019179 
1092	 2.22939805453099 
1093	 1.35909797135926 
1094	-0.829825180530561 
1095	-1.70060362797097 
1096	 0.621082133961811 
1097	 1.96151959566043 
1098	 2.84565061516772 
1099	 3.66444018485564 
1100	 5.62901250941349 
1101	 6.05230273848037 
1102	 4.73626823413193 
1103	 3.71360416758532 
1104	 0.79793711133863 
1105	 1.49887311663142 
1106	 2.12058455016027 
1107	 2.22826085727518 
1108	 3.11349317101281 
1109	 3.17515741047033 
1110	 2.59647048894695 
1111	 0.676042529222358 
1112	-0.402334457668161 
1113	-2.5266867567692 
1114	-2.15780898394994 
1115	 1.15840177335834 
1116	 1.14496458227634 
1117	 2.02669632083631 
1118	 0.318048258089178 
1119	-8.50133425127441 
1120	-10.1634047132141 
1121	-8.05118379625386 
1122	-7.39613560828236 
1123	-2.2040514969155 
1124	 0.183851363156715 
1125	-0.456823270478751 
1126	-0.914054751650166 
1127	-0.950711574191083 
1128	-1.21990522091829 
1129	-0.939490122371023 
1130	-0.301047183893621 
1131	-0.074863597801193 
1132	 0.433830006486695 
1133	 0.623982330110317 
1134	-0.3295046877982 
1135	 0.531211889941124 
1136	 3.57382911538226 
1137	 3.81101914974171 
1138	 4.81200560247119 
1139	 3.07502573457129 
1140	-6.33103454057643 
1141	-7.15685041523114 
1142	-3.04246979912828 
1143	-1.42431006786478 
1144	 6.39100403635526 
1145	 9.26556048847537 
1146	 5.66968701792371 
1147	 4.25361451408684 
1148	 2.86175620838105 
1149	 0.868060424718297 
1150	 6.47681464110783E-02 
1151	 0.249708181661075 
1152	-6.39785373987083E-02 
1153	 0.509372629083107 
1154	-0.984891036111966 
1155	-4.41250512702218 
1156	-5.28800132357834 
1157	-6.93439711082024 
1158	-6.48975773650235 
1159	-2.06723279745185 
1160	-0.930946854032129 
1161	 5.47151779070765E-03 
1162	-0.276580331029225 
1163	-3.29210932381555 
1164	-4.68353929033642 
1165	-6.61422992306486 
1166	-7.62280624956608 
1167	-8.05098978681941 
1168	-7.25765382432787 
1169	-6.42733482760176 
1170	-4.14990121589614 
1171	-3.98548551921337 
1172	-4.19915806057272 
1173	-4.35570733060721 
1174	-6.67161118449923 
1175	-6.05400869039341 
1176	-2.86754988232228 
1177	-2.20510681014243 
1178	-1.41584179828849 
1179	-0.72025664794397 
1180	-1.94412022659516 
1181	-2.07226319220973 
1182	-1.40238223093005 
1183	-0.331110924080467 
1184	 1.09202204933916 
1185	 2.4303596026836 
1186	 5.34094179500191 
1187	 6.43020064794932 
1188	 6.04325031305906 
1189	 6.06121735687539 
1190	 7.30485681506515 
1191	 4.32418005346978 
1192	 2.50333791594913 
1193	 1.84950433827937 
1194	-2.05589819469941 
1195	-3.09946979226869 
1196	-2.87089705769582 
1197	-1.33936873542058 
1198	-0.920688269837353 
1199	 1.78532614443285 
1200	 1.57565865328104 
1201	-1.58547869507629 
1202	-2.09154931079791 
1203	-3.34050741342627 
1204	-2.03647913990644 
1205	 3.59423860747044 
1206	 5.13777002842145 
1207	 5.28834583000007 
1208	 6.33915048424657 
1209	 5.68450253189271 
1210	 4.89570828906271 
1211	 4.60149415431893 
1212	 5.60380352519949 
1213	 4.40508499622552 
1214	 4.16720643507599 
1215	 2.68515061082008 
1216	 2.66994892549044 
1217	 1.00208693291509 
1218	-4.37134124453644 
1219	-8.52425699698132 
1220	-11.8898806090679 
1221	-10.7356764816772 
1222	-4.57882247872604 
1223	-2.20791081682813 
1224	 3.01089044524451 
1225	 3.76333698317582 
1226	-1.13432434722336 
1227	-2.69719852994438 
1228	-2.92503900028666 
1229	-3.66699882804149 
1230	-6.32100354461579 
1231	-5.62948724561871 
1232	-3.14596718202503 
1233	-1.28407498450861 
1234	 6.32493919725586 
1235	 8.47684845959815 
1236	 8.63723287283661 
1237	 2.82855713608596 
1238	-0.635905185003173 
1239	-3.59277386155234 
1240	-6.73669432570339 
1241	-3.60616220434282 
1242	-0.240065022308627 
1243	 0.209947010273679 
1244	 2.29255672177083 
1245	 2.31595894014261 
1246	 1.96952319845353 
1247	 2.43805593211952 
1248	 1.55644777003014 
1249	-0.300480042279939 
1250	-1.7388145388701 
1251	-5.17305359092477 
1252	-6.08293849197516 
1253	-4.91173277746667 
1254	-3.07916642563291 
1255	-0.358005484289615 
1256	 1.7998207989993 
1257	 4.09132043239567 
1258	 5.55184563129791 
1259	 8.55788732762925 
1260	 9.99517758414801 
1261	 10.0348146993466 
1262	 10.6111331069837 
1263	 10.140649054998 
1264	 3.8887653557817 
1265	-2.39488255547049 
1266	-6.54127740882425 
1267	-8.43695004395378 
1268	-8.23327382271848 
1269	-3.46349559417225 
1270	 2.34211776713577 
1271	 2.78837298356714 
1272	 2.11520306917307 
1273	 1.85320135285622 
1274	 0.198953187273287 
1275	-0.507411232280079 
1276	 7.47635753521571E-02 
1277	-1.41964670235708 
1278	-3.76130256741881 
1279	-2.35918645360545 
1280	 4.74281836891163 
1281	 4.87371822422294 
1282	 3.54755057187452 
1283	 3.75501984451563 
1284	-2.1552456234729 
1285	-2.38949483810857 
1286	 4.04468387561374 
1287	 6.33370686673375 
1288	 8.09854141085098 
1289	 9.86914997400886 
1290	 9.29170378725713 
1291	 6.85261088772273 
1292	 4.1016362912187 
1293	 2.76855040734977 
1294	 2.54260984442362 
1295	 2.63758222553531 
1296	 1.76177679489697 
1297	 0.83900974561016 
1298	 2.59337374355411 
1299	 4.37709419217075 
1300	 4.19952921282135 
1301	 4.41441728227059 
1302	 1.27248851598886 
1303	-1.34946619864319 
1304	-2.76059908586306 
1305	-3.71365243731844 
1306	 2.72920599365806E-02 
1307	 1.3514751272451 
1308	 4.12393473277769 
1309	 7.34555173905529 
1310	 3.28684778378566 
1311	 0.701405137482997 
1312	-0.968900063793911 
1313	-4.15390558640235 
1314	-6.2819869369647 
1315	-6.46098532887554 
1316	-7.10638997020258 
1317	-8.32657919043661 
1318	-6.35707388587049 
1319	-1.91111773781525 
1320	 1.41209314452175 
1321	 4.91572047986319 
1322	 3.82383592953424 
1323	 4.02688761299821 
1324	 4.71726990961698 
1325	 0.469395937477458 
1326	-2.3032310224003 
1327	-5.90247382421313 
1328	-10.38783967294 
1329	-9.53238438118862 
1330	-7.13349319135542 
1331	-7.42425846485746 
1332	-9.1735374774141 
1333	-8.130306964783 
1334	-7.87813522155552 
1335	-7.45364634138292 
1336	-4.29566449094642 
1337	-4.3966113076157 
1338	-3.34844452019063 
1339	-1.30347581430371 
1340	-0.402373170859972 
1341	 1.85060468257795 
1342	 2.09197349036029 
1343	 2.49001785887994 
1344	 2.04717361439284 
1345	 0.705324683347159 
1346	 1.71432981609227 
1347	 1.86621988416258 
1348	 2.53946074714568 
1349	 2.82482777830306 
1350	 1.61782650201116 
1351	 1.51460131693585 
1352	 1.67614133350908 
1353	 1.55625289594718 
1354	 1.73867178768303 
1355	 3.47179956324708 
1356	 3.73810839175613 
1357	 2.00827816913004 
1358	 2.28823617553807 
1359	 3.26221069900303 
1360	 1.12866171136518 
1361	 0.380670821746449 
1362	-1.3742156513694 
1363	-5.2984922030565 
1364	-4.62590198383283 
1365	-1.06184078696081 
1366	 1.65718297025265 
1367	 2.76382561566151 
1368	 3.30634646692689 
1369	 3.08449551788887 
1370	 2.34578518611153 
1371	 3.15730142175321 
1372	 3.81440145895984 
1373	 1.49284811646826 
1374	-1.01037529226862 
1375	-2.92093456667686 
1376	-7.22733284607625 
1377	-9.93436744809462 
1378	-8.35883898333216 
1379	-3.33004731032912 
1380	 2.14665520727047 
1381	 4.80674497331481 
1382	 6.42216027522259 
1383	 4.94177186285207 
1384	-0.381874483789133 
1385	-2.057361570963 
1386	-2.92947706335214 
1387	-6.22897346816612 
1388	-5.24176206489849 
1389	-1.73766804794146 
1390	-0.686183849843758 
1391	-1.48974771277286 
1392	-3.02943999677966E-02 
1393	 1.4103998297334 
1394	 1.82137153870319 
1395	 3.49127662159285 
1396	 4.10143087058398 
1397	 1.02905560851051 
1398	-0.229846282015851 
1399	-2.91997367457791 
1400	-2.7493853408795 
1401	-0.909776747122636 
1402	-0.901906079808385 
1403	 1.72708793396401 
1404	 2.06872839095974 
1405	 0.723360406912593 
1406	 1.89707403378225 
1407	 1.80405759235541 
1408	 1.83656491256929 
1409	 3.39238595992102 
1410	 3.8392600611586 
1411	 2.63970257822365 
1412	 1.32188817667469 
1413	 0.284890686243972 
1414	-1.08137811786589 
1415	-1.07796970355391 
1416	-0.341685865564488 
1417	 1.24393947928589 
1418	 2.73585034053801 
1419	 3.43243888049691 
1420	 3.98343434507132 
1421	 3.26864184304642 
1422	 3.47789612533957 
1423	 4.21438459860567 
1424	 3.14646053731176 
1425	 2.33182888189563 
1426	 0.926476049710559 
1427	-0.622351847659257 
1428	 1.56268391091402 
1429	 4.8255424170903 
1430	 7.07180666023484 
1431	 6.41950547079752 
1432	 1.91401437738728 
1433	-2.47702276874454 
1434	-6.12450132866028 
1435	-9.09842928232145 
1436	-10.4251141851571 
1437	-9.34788224078591 
1438	-6.73034110943029 
1439	-4.95746678129059 
1440	-2.04771755594197 
1441	 1.33621968715943 
1442	 3.55982439118256 
1443	 4.48867095331364 
1444	 2.38290805285079 
1445	 1.09855615920873 
1446	-4.48465070699421 
1447	-5.25114244706963 
1448	-0.54321498180492 
1449	 2.67578999982447 
1450	 7.20218883758279 
1451	 8.73145737134443 
1452	 9.51463695694127 
1453	 6.46260544680864 
1454	 3.03352047221905 
1455	-0.270994153654728 
1456	-3.6285170544324 
1457	-6.53181474113649 
1458	-6.76246471548014 
1459	-3.98741052946188 
1460	-2.80240171832805 
1461	-1.26998884212788 
1462	-2.18003752668891 
1463	-5.11906890742081 
1464	-2.24177033266589 
1465	 0.482906262776908 
1466	-0.198430064399622 
1467	 0.99628783153242 
1468	 1.00785556364656 
1469	-1.35222666147542 
1470	 1.57488249883503 
1471	 5.95418535514836 
1472	 6.21987839535106 
1473	 6.97313970409146 
1474	 3.98839192120766 
1475	-1.23583141542643 
1476	-2.55897248903268 
1477	-3.44795952604493 
1478	-1.14295963684517 
1479	 3.95495144881234 
1480	 4.58095634682583 
1481	 4.36724689483826 
1482	 2.22958848228404 
1483	-1.798190393569 
1484	-0.324159294852635 
1485	 2.17665694650835 
1486	 5.23422913103203 
1487	 8.42834429814892 
1488	 8.23826878554961 
1489	 5.81703552940162 
1490	 4.06655088723935 
1491	 2.7048841578562 
1492	-0.331695540433361 
1493	 1.719139923367 
1494	 2.73690808716687 
1495	 1.47828705494782 
1496	 6.91938409901133 
1497	 8.73385447551387 
1498	 7.27208654680323 
1499	 7.22250759569308 
1500	 4.1069881344695 
1501	 1.96856798440916 
1502	 0.563658375909569 
1503	 5.99278604709866E-02 
1504	-1.21128462158344 
1505	-5.5088295921745 
1506	-5.43977048204233 
1507	-3.69080281251108 
1508	-4.17523150211825 
1509	-1.92157212626213 
1510	 0.159175152123388 
1511	-2.03203000683552 
1512	-1.92616786218154 
1513	-1.38110955278412 
1514	-4.43733679898518 
1515	-3.92155152031059 
1516	-1.63376532663942 
1517	 0.216198666464256 
1518	 4.74893937052925 
1519	 8.11477593798204 
1520	 8.17881934699369 
1521	 4.65479984248474 
1522	-0.945773445620867 
1523	-4.84419052750806 
1524	-7.69067944767256 
1525	-6.70877438611926 
1526	-3.87618338172617 
1527	-3.31792800476361 
1528	-3.66160127874667 
1529	-4.59714088448184 
1530	-3.6651740404985 
1531	-1.7502714114576 
1532	 1.42519127455374 
1533	 2.50713308543997 
1534	-0.214949016608093 
1535	-1.87905609258289 
1536	-3.49709753979922 
1537	-3.48254114270445 
1538	-0.546501116245908 
1539	 0.963196666676658 
1540	 9.80440123325487E-02 
1541	 2.41666796064201 
1542	 3.99576470382972 
1543	 2.20755382394844 
1544	 2.50082115227798 
1545	-0.905116803239317 
1546	-4.93834962638069 
1547	-3.67630242322596 
1548	-5.50912932571683 
1549	-7.47067361283843 
1550	-6.01522165014491 
1551	-6.99036560940493 
1552	-3.90478650503629 
1553	 2.61066264377372 
1554	 3.40821199021799 
1555	 3.68743995258807 
1556	 3.03575961652308 
1557	-0.104021106205236 
1558	 0.531707222509969 
1559	 2.99651054261575 
1560	 5.24473333167899 
1561	 6.39454829997354 
1562	 6.77342693161361 
1563	 5.48366059855742 
1564	 1.26911256888324 
1565	-0.266760180043621 
1566	-1.84530054072518 
1567	-5.18802980744845 
1568	-2.69581747824973 
1569	 0.899819014485505 
1570	 0.752606869033587 
1571	 2.67721753755587 
1572	 1.91660188958471 
1573	-2.51349392697233 
1574	-3.26874029809623 
1575	-3.26112993786806 
1576	-2.23368872862607 
1577	-0.174464747641065 
1578	-0.397386837166319 
1579	 0.506575499223359 
1580	 0.466250715126489 
1581	-1.34917352122222 
1582	-0.104509823748185 
1583	-0.67134581789138 
1584	-0.580074114528222 
1585	 1.39961874081934 
1586	 0.185480254541177 
1587	 0.828804981398889 
1588	-0.111667824325568 
1589	-1.81747164862661 
1590	-1.08859730365755 
1591	-0.894224422701171 
1592	-1.33217901998199 
1593	-2.77027264206337 
1594	-2.28175445790629 
1595	-2.54372111121429 
1596	-3.83574731875177 
1597	-3.07148671306315 
1598	-3.6920720803585 
1599	-6.19098582675537 
1600	-6.59789076189946 
1601	-5.21018933823451 
1602	-5.42545447801236 
1603	-5.20224745734957 
1604	-3.11354322084728 
1605	-3.58369706428097 
1606	-4.61052130206667 
1607	-2.85805728808123 
1608	-3.11297754842663 
1609	-3.70434034257357 
1610	-1.87323804060495 
1611	-0.784657965695908 
1612	-4.70252878192104E-03 
1613	 1.82051179031615 
1614	 1.9304762493393 
1615	 2.13350323867847 
1616	 4.78916033819615 
1617	 7.25402384495775 
1618	 11.1546453547325 
1619	 10.5333469481127 
1620	 6.35904109342121 
1621	 5.60061962990734 
1622	 1.77841869314702 
1623	-0.763648735159133 
1624	-1.54426595175013 
1625	-4.41295121579523 
1626	-2.99569643788455 
1627	 1.52606305214931 
1628	 5.8391416012486 
1629	 8.205207344748 
1630	 5.98403230494895 
1631	 1.21400365359795 
1632	-1.85777403776544 
1633	-4.24593366909559 
1634	 4.07635323316441E-03 
1635	 1.44850876050331 
1636	 3.27726983244117 
1637	 4.19321258638699 
1638	 2.46788264757683 
1639	 1.19517060735203 
1640	-0.757964803072184 
1641	-0.856787775444255 
1642	-0.440757868382416 
1643	 0.130886277241865 
1644	 2.95864647994247 
1645	 4.06379222018365 
1646	 5.25170631008209 
1647	 5.3892921817254 
1648	 3.46885708807481 
1649	 2.78131678699413 
1650	 0.699546504363775 
1651	 0.390818966820828 
1652	 3.29528470710531 
1653	 3.86894207482956 
1654	 4.00255707967843 
1655	 3.52896073251757 
1656	 0.543174318097867 
1657	 4.24232092044251E-02 
1658	 0.485094468262917 
1659	 1.36795088681906 
1660	 3.32821691729882 
1661	 5.88555702340251 
1662	 10.9090035145557 
1663	 11.5594517853981 
1664	 10.8454409635883 
1665	 9.49534574197572 
1666	 4.35410835704846 
1667	 1.60494555267603 
1668	-0.795981990508095 
1669	-0.457247810441479 
1670	 2.10077869827556 
1671	 1.81029746749471 
1672	 2.8019034709382 
1673	 2.07696589122187 
1674	-3.09070971187231 
1675	-2.65123592439123 
1676	 1.57088927406671 
1677	 2.73459152747902 
1678	 5.32618652147208 
1679	 4.32215459698462 
1680	-0.445900054326451 
1681	-1.08003136923626 
1682	-1.70376061429675 
1683	 1.04613162022559 
1684	 2.75166666719059 
1685	 3.13494754783598 
1686	 3.5891382946082 
1687	 3.74951984989342 
1688	 2.9261909542948 
1689	 0.894696105459913 
1690	-0.853872334008732 
1691	-3.77315114298135 
1692	-5.77640884580088 
1693	-7.04488469851732 
1694	-8.02436771954564 
1695	-8.3994923216641 
1696	-9.00095881033291 
1697	-10.760726365451 
1698	-9.95576190933429 
1699	-6.50837299712177 
1700	-5.21790117156366 
1701	-2.45965412953954 
1702	-1.70778388012422 
1703	-5.38657575029292 
1704	-5.28192164392655 
1705	-2.30036106237302 
1706	-2.14104458701257 
1707	-2.43321286565114 
1708	-1.80566533574784 
1709	-2.89215362329164 
1710	-2.56480465433738 
1711	-0.126705016861901 
1712	 1.72645113763906 
1713	 3.703203123546 
1714	 4.31905794065467 
1715	 5.10156937879836 
1716	 5.05246045937483 
1717	 2.82735220404713 
1718	 2.18121531516287 
1719	 2.23000915731687 
1720	 2.52551035311618 
1721	 3.37421907487504 
1722	 3.30729471638513 
1723	 2.87649279635569 
1724	 3.54203742407529 
1725	 4.10257569956018 
1726	 4.78509223387824 
1727	 6.49865873548478 
1728	 4.21894202305457 
1729	-0.242450728372474 
1730	-3.81832366719868 
1731	-4.415800170558 
1732	-1.66455480206369 
1733	 0.260033213786295 
1734	 4.41719192052048 
1735	 4.84232236232198 
1736	 1.65075713684025 
1737	 1.10020004050754 
1738	 0.123981981523323 
1739	-0.83617912381767 
1740	 0.198194417032226 
1741	 0.327913861366246 
1742	-0.78032979552468 
1743	-1.46524397766454 
1744	-1.32635254705985 
1745	-2.36982028122126 
1746	-5.91435861491175 
1747	-6.27320990152224 
1748	-4.77505242528469 
1749	-4.18464639457844 
1750	-2.05520507987066 
1751	-1.32383622231026 
1752	-2.44878545326711 
1753	-1.48451519058234 
1754	 1.34491154565768 
1755	 3.00169981550691 
1756	-11.9522606152444 
1757	-6.96277540971335 
1758	-8.43785808813046 
1759	-8.24730390316473 
1760	-8.21381842755939 
1761	-0.289190841339718 
1762	-11.0094068931085 
1763	-26.2750769812991 
1764	-25.0180726637488 
1765	-18.2737526626196 
1766	-14.4433305641624 
1767	 6.78770154271328 
1768	 13.515258461585 
1769	 10.6314059428578 
1770	 5.02303312289987 
1771	-1.23079468016606 
1772	-3.12687542639338 
1773	-7.02620156772533 
1774	-19.0092478625051 
1775	-21.7126610934482 
1776	-17.6121134119407 
1777	-16.8680285087119 
1778	-17.2161436710032 
1779	 3.50625095202646 
1780	 3.33455016532067 
1781	-8.84272825032655 
1782	-26.116331670571 
1783	-37.26940905053 
1784	-34.9997635910251 
1785	-23.5155344608587 
1786	-8.72461340207258 
1787	 8.51636286443138 
1788	 3.60182096244477 
1789	-2.13444024250226 
1790	-2.24045002928278 
1791	-0.309939381576416 
1792	 11.4794650013628 
1793	 10.4411779263411 
1794	 9.8686062978783 
1795	 1.73824789742384 
1796	 0.500080274330273 
1797	 0.25070969184073 
1798	 3.95165118933865 
1799	 16.0393641220201 
1800	 17.8575875614276 
1801	 7.16190464823965 
1802	-4.24015556097472 
1803	-8.38078807777737 
1804	-12.1532840447554 
1805	-18.5639079725231 
1806	-22.8970867176237 
1807	-22.3733696839807 
1808	-20.1986352853903 
1809	-24.5867510249877 
1810	-21.489979412008 
1811	-10.215457865637 
1812	-12.8487426752921 
1813	-34.8544426192846 
1814	-41.9758393556176 
1815	-58.8939870128589 
1816	-53.8583885471194 
1817	-28.5345783545417 
1818	 0.251033065915661 
1819	 10.4193189022901 
1820	 20.5850438977715 
1821	 22.7229510098718 
1822	-2.83963571570039 
1823	-7.47381001559269 
1824	 5.27171910526203 
1825	 3.29232078424803 
1826	-11.4765519796993 
1827	-14.0733870285238 
1828	-9.51045821187629 
1829	-13.7143140693149 
1830	-18.2756943746304 
1831	-21.8741861893735 
1832	-18.0531940109502 
1833	-17.668657971681 
1834	-13.5913421567585 
1835	 11.1871154089403 
1836	 17.2031107804966 
1837	 7.15343181897858 
1838	 2.65760663273298 
1839	-7.06226473714781 
1840	-12.1439298382963 
1841	-18.5539497337705 
1842	-27.9621411918296 
1843	-25.7440808017584 
1844	-16.0320778736762 
1845	-12.5876997921348 
1846	 2.15501280538915 
1847	 6.37216939490203 
1848	-4.51243792511967 
1849	-5.71306744523725 
1850	-5.61050790135637 
1851	-8.77857632638777 
1852	-6.99108358088751 
1853	-0.173281808644496 
1854	 1.55780820524309 
1855	 15.3583598004749 
1856	 6.20008370518768 
1857	-22.6163336811205 
1858	-44.3804780603968 
1859	-57.4260638426374 
1860	-72.4160078936427 
1861	-55.3526857604323 
1862	-29.8737117033967 
1863	-13.7055735809747 
1864	 6.95547486978557 
1865	 16.742158053994 
1866	 23.3062995554795 
1867	 24.2384461690136 
1868	 14.8127527486686 
1869	 1.7253878274451 
1870	 0.212337033733574 
1871	-6.96317821961132 
1872	-7.69023462377565 
1873	 1.51545910720703 
1874	-1.2148654933088 
1875	-9.08776028730376 
1876	-11.8343129274847 
1877	-13.5784760315307 
1878	-18.2547260403805 
1879	-20.8126207360016 
1880	-21.4194448062539 
1881	-25.9096978873656 
1882	-26.1935321296268 
1883	-12.5384592053728 
1884	 7.14557634822334 
1885	 18.9904791926455 
1886	 19.3014500773798 
1887	 19.0491527462373 
1888	 6.87386073861771 
1889	-1.8897927595909 
1890	 0.184948756497834 
1891	 6.14020073397979 
1892	 11.8738789854829 
1893	 10.1275688310976 
1894	 3.84695025764485 
1895	 5.67075123886315 
1896	 7.99126887794677 
1897	 6.27672964053803 
1898	 3.81274301097942 
1899	 1.2731765558437 
1900	-4.12369093042493 
1901	-8.79220969244797 
1902	-18.0685311725273 
1903	-25.3225234423371 
1904	-27.8751603971129 
1905	-25.8115835040452 
1906	-13.253696194007 
1907	 10.6544566662806 
1908	 18.7282169708837 
1909	 21.0947421600519 
1910	 19.1685000344665 
1911	-0.324956042937628 
1912	-7.06208903945875 
1913	-12.2264020524179 
1914	-8.7157903660226 
1915	-3.04035481796531 
1916	 8.37776806051518 
1917	 11.4232934774914 
1918	-2.91242212912734 
1919	-9.25115457881055 
1920	-22.2439163150506 
1921	-28.6938404614467 
1922	-27.8956517591805 
1923	-28.341883926641 
1924	-29.7917818248344 
1925	-30.9824247092027 
1926	-33.0570542345693 
1927	-33.7671692226154 
1928	-24.3175309333494 
1929	-20.3989596654902 
1930	-15.3285667926495 
1931	-2.41103457644078 
1932	-2.32610456905004 
1933	-13.1341702055115 
1934	-15.4555994735368 
1935	-26.1317221663134 
1936	-22.5827959190217 
1937	-2.33624718140409 
1938	 6.7136236087249 
1939	 19.2404401748414 
1940	 29.2068268858962 
1941	 32.0419423781665 
1942	 26.2403679933673 
1943	 22.2296018338221 
1944	 16.8274326660019 
1945	 8.63237649676267 
1946	-10.0947075082657 
1947	-17.0578169673271 
1948	-19.1423371046344 
1949	-22.8959918260877 
1950	-19.1178745083021 
1951	-18.5254043347666 
1952	-25.9335962655151 
1953	-24.0982516360264 
1954	-25.7902381390555 
1955	-28.1181458992515 
1956	-26.4245790348619 
1957	-21.3793143193052 
1958	-20.0924593168039 
1959	-14.2083001284028 
1960	-15.1607816537362 
1961	-25.7137419872687 
1962	-29.6265858178553 
1963	-36.1892670541321 
1964	-37.1362407728135 
1965	-31.3434561036091 
1966	-27.1833012951965 
1967	-19.1699541348038 
1968	-0.753681637372391 
1969	 0.346657174172519 
1970	-7.64513001851078 
1971	-8.31297940108662 
1972	-17.1674643938367 
1973	-20.0923317030466 
1974	-6.92079914795489 
1975	-8.75219085959097 
1976	-23.9726091595621 
1977	-32.5391696991845 
1978	-44.1977437500586 
1979	-57.4292823130558 
1980	-58.9514877259181 
1981	-50.650225344267 
1982	-46.1412038697395 
1983	-34.6081995230747 
1984	-29.4043125094887 
1985	-26.7057881669623 
1986	-25.0898490621983 
1987	-27.2400177475168 
1988	-25.9763069028189 
1989	-27.7944040634569 
1990	-23.8471130451325 
1991	-8.33935230869415 
1992	-4.62265014620068 
1993	-1.23460647906237 
1994	 2.64467227719988 
1995	 1.95301696653894 
1996	-5.81403136824688 
1997	-8.00213345908452 
1998	-9.54544588140989 
1999	-12.6135972866522 
2000	-17.309161709551 
2001	-21.2207840362125 
2002	-25.9608115024387 
2003	-26.0048485915058 
2004	-27.6801568958653 
2005	-18.202014227484 
2006	-1.98440761679055 
2007	-7.3051255090111 
2008	-15.4349287559235 
2009	-23.8214992820454 
2010	-27.8895754651489 
2011	-38.722981687706 
2012	-37.2928239100706 
2013	-24.0875818799991 
2014	-17.6529467263723 
2015	-7.50920840224986 
2016	-0.188545749959127 
2017	 4.10082280736748 
2018	 10.94278897437 
2019	 23.0134052404919 
2020	 25.054382077101 
2021	 20.1320843282341 
2022	 10.8119123746243 
2023	-3.77683853875271 
2024	-19.2920675893851 
2025	-27.5583975781699 
2026	-28.440329814034 
2027	-28.1656348464045 
2028	-24.4075330750612 
2029	-22.8983991653837 
2030	-21.6506032477764 
2031	-19.9101890135909 
2032	-16.503223909037 
2033	-15.6053965644076 
2034	-21.0130322796195 
2035	-9.90739566327907 
2036	-13.4585851988687 
2037	-11.3058503182461 
2038	-3.53271272047714 
2039	-11.7844671331413 
2040	-15.7439005411699 
2041	-29.7987974677456 
2042	-30.2153028740769 
2043	-22.2432431699243 
2044	-18.617210521949 
2045	-3.44928852383276 
2046	 1.75547547967621 
2047	-6.86032803372184 
2048	-7.41280337145335 
2049	-4.73470862781515 
2050	-8.28777710278247 
2051	-6.63861912095498 
2052	 2.72594737450035 
2053	 6.63063826452415 
2054	 14.4392608451769 
2055	 17.5004524223358 
2056	 12.5369646305846 
2057	 7.20153794541918 
2058	-6.44555324889969 
2059	-15.7670552893925 
2060	-29.4468997398848 
2061	-33.4464944177775 
2062	-29.4713452530189 
2063	-26.8675784900988 
2064	-22.1428538454066 
2065	-10.6945572167566 
2066	-3.50337361851552 
2067	 4.95011900458716 
2068	 16.6423398641055 
2069	 17.1245348283555 
2070	 14.9994994470452 
2071	 5.2150624278805 
2072	-7.47849413639013 
2073	-18.3351528536408 
2074	-31.6439878619905 
2075	-41.4293354517974 
2076	-44.4673118543707 
2077	-41.1289263439305 
2078	-37.6893933371586 
2079	-20.1537719615418 
2080	-20.1846149623085 
2081	-28.6668217895089 
2082	-42.8349648152409 
2083	-49.1128349616367 
2084	-55.3552957767183 
2085	-49.2027108815194 
2086	-34.1807691592385 
2087	-28.8975574932135 
2088	-21.8331955372972 
2089	-20.127515395131 
2090	-16.2450972378409 
2091	-11.8303983625389 
2092	-15.5143589291763 
2093	-10.6543760098622 
2094	-6.53521929008686 
2095	-9.5682612360706 
2096	-18.9828788143637 
2097	-24.1582189446359 
2098	-32.8948314255672 
2099	-39.7783875217105 
2100	-43.4134635360208 
2101	-35.5799072773251 
2102	-29.3650881044267 
2103	-27.0667938187258 
2104	-13.5652638759615 
2105	 1.67409768646033 
2106	 9.72019761419999 
2107	 14.5322276135636 
2108	 12.0167900565408 
2109	 4.40476845003083 
2110	 4.02633495919676 
2111	 2.74450678010859 
2112	-6.978472128014 
2113	-9.04871506552239 
2114	-8.04754421459049 
2115	-7.05425242330982 
2116	-1.43329156259711 
2117	 15.2009811741644 
2118	 15.7964298560428 
2119	 11.2493382123693 
2120	 4.95581961393007 
2121	-8.01817249441394 
2122	-8.39111947193275 
2123	-14.2305654074289 
2124	-13.9470043248949 
2125	-9.84052906823912 
2126	-7.43749611877457 
2127	 6.66581852523687 
2128	 8.72177322289353 
2129	 7.13576588046424 
2130	 7.79301581099745 
2131	-3.48754152453575 
2132	-2.57012445439076 
2133	-2.41308505267721 
2134	-8.77566822382658 
2135	-13.6229913172707 
2136	-19.0150656817036 
2137	-25.6390554494907 
2138	-38.3696027554963 
2139	-38.950341410165 
2140	-32.1411307911634 
2141	-23.5883835396812 
2142	-14.7018145531815 
2143	-11.9219612190603 
2144	-16.5715112260797 
2145	-7.90727065663234 
2146	 5.51840509149614 
2147	 22.9498681358741 
2148	 30.9882908441996 
2149	 25.3859621749288 
2150	 7.98710910513045 
2151	-14.048464816283 
2152	-18.4569097501967 
2153	-18.8500264156466 
2154	-10.3773890302508 
2155	 5.53225828091328 
2156	 14.1672423113689 
2157	 24.1623940834982 
2158	 25.2843017259154 
2159	 19.8865587875481 
2160	 11.0966016317342 
2161	-15.5074783786209 
2162	-23.0398830603613 
2163	-24.7061328091563 
2164	-22.3861773378965 
2165	-6.42050622590845 
2166	 8.00283590273519 
2167	 2.33614953163445 
2168	-0.124439338457347 
2169	-7.24274100797487 
2170	-14.6468274698814 
2171	-3.68652546727201 
2172	 1.05054920183837 
2173	 7.99536993845532 
2174	 22.6542261557882 
2175	 19.0493376939398 
2176	 12.8607872716496 
2177	 0.775526108362735 
2178	-21.923313247168 
2179	-27.6170301743608 
2180	-21.8211186495048 
2181	-18.2937157452148 
2182	-11.4819113792799 
2183	-13.232504903854 
2184	-32.9012270036949 
2185	-39.434209730689 
2186	-41.7209315535546 
2187	-43.0282077583835 
2188	-37.7106174049668 
2189	-32.9666980827052 
2190	-43.9278330800872 
2191	-53.1269247454707 
2192	-63.9344063100134 
2193	-58.5213361781951 
2194	-29.1986656803895 
2195	-13.5372107617163 
2196	-6.41388416890019 
2197	-0.353491109458835 
2198	-6.14424149341632 
2199	-14.2794325386994 
2200	-17.2616993136614 
2201	-25.7155811481748 
2202	-34.9958044219227 
2203	-35.6564369660467 
2204	-36.0570501902372 
2205	-35.9451113642693 
2206	-46.506801709068 
2207	-55.244336821435 
2208	-52.5612546648127 
2209	-52.2514187713399 
2210	-45.8709709216964 
2211	-26.9647155910204 
2212	-18.317450564346 
2213	-11.5445545692982 
2214	-3.07257853452464 
2215	 6.4708394744488 
2216	 10.8660516348481 
2217	 14.0264708820753 
2218	 11.4365307587259 
2219	 3.28907190055435 
2220	-9.08782294929511 
2221	-20.9950706163624 
2222	-27.3941596333634 
2223	-23.6157813550481 
2224	-14.3263614041993 
2225	-6.09921874306334 
2226	 3.47368310832603 
2227	 3.73781531414577 
2228	 3.1736682861186 
2229	 12.9598313319287 
2230	 17.7572733141964 
2231	 22.6422202225301 
2232	 27.3898262798484 
2233	 23.0869412257259 
2234	 16.6136912897984 
2235	 7.31533961661083 
2236	 0.575783210318255 
2237	-8.02682814744523 
2238	-19.9076870269206 
2239	-23.9382954091872 
2240	-32.7587539205281 
2241	-42.4699382256921 
2242	-35.5973972945975 
2243	-34.3474549936383 
2244	-35.3477859141999 
2245	-33.9832076514979 
2246	-28.4826987228372 
2247	-30.8937084108637 
2248	-40.1319668278041 
2249	-37.0698810011394 
2250	-33.0195810863254 
2251	-26.2863172011402 
2252	-3.80136720067406 
2253	 4.02503716586838 
2254	 3.12948701999572 
2255	 3.37232052460997 
2256	-3.35031772728806 
2257	-1.53612597049855 
2258	-3.83322922914357 
2259	-15.5027638622279 
2260	-27.356136874404 
2261	-42.2569112636556 
2262	-51.2593922903589 
2263	-48.8189275124342 
2264	-38.3974660519775 
2265	-29.5355363473356 
2266	-26.9446736241161 
2267	-21.9460502257779 
2268	-24.6901037218741 
2269	-26.7009346727041 
2270	-21.1593480875155 
2271	-22.1552460730568 
2272	-13.0899584891612 
2273	-5.81535503822345 
2274	-5.7697042029364 
2275	 0.816001500849242 
2276	 10.4193756618332 
2277	 19.1771202244203 
2278	 26.1141457314783 
2279	 32.8483680818576 
2280	 28.1874173767478 
2281	 19.9287107601437 
2282	 11.2596857991326 
2283	 12.9522890731062 
2284	 21.5840542090448 
2285	 20.5442231464043 
2286	 23.2923255861081 
2287	 27.053007144467 
2288	 28.6637298532272 
2289	 34.4419789204594 
2290	 32.6299581748069 
2291	 30.1211860588115 
2292	 21.5146454946501 
2293	 0.807757896263397 
2294	-15.0476719294876 
2295	-38.9840918241297 
2296	-45.3460756906264 
2297	-43.3604865095642 
2298	-37.7929204391039 
2299	-13.7999765901138 
2300	-4.907500879106 
2301	-2.77264007665905 
2302	-8.42043660932438E-02 
2303	-1.85534508609441 
2304	-2.65514307806031 
2305	-1.14299958456248 
2306	-1.44586998136122 
2307	-4.41533675473331 
2308	-7.12854694947381 
2309	-11.8822965534421 
2310	-13.5975730197424 
2311	-18.5745825581986 
2312	-19.8351218100909 
2313	-16.2583530356238 
2314	-24.3703043413133 
2315	-27.1863118642161 
2316	-19.8541897254229 
2317	-18.542748435613 
2318	-12.998651073835 
2319	-6.91781720292001 
2320	-16.0758586880993 
2321	-14.8276998429584 
2322	-18.4080366711513 
2323	-27.9630028929491 
2324	-28.1934390703858 
2325	-51.7169903039816 
2326	-63.4505335658985 
2327	-64.0889860988532 
2328	-67.7389001688638 
2329	-50.7101878676361 
2330	-36.8316780338739 
2331	-25.1190389844253 
2332	-21.0913233622501 
2333	-28.6111874478677 
2334	-39.2502907690061 
2335	-48.2894530412684 
2336	-49.7421420597927 
2337	-48.6507356325343 
2338	-40.8255795061402 
2339	-35.1221941144248 
2340	-32.6439797272542 
2341	-25.1645117085006 
2342	-18.2778561117736 
2343	-7.2353893014726 
2344	 8.04622193924327 
2345	 17.7556792188934 
2346	 24.1634692520562 
2347	 18.5968680509726 
2348	 12.4666338487836 
2349	 14.4637780597099 
2350	 18.8311789013265 
2351	 26.4185984690478 
2352	 22.8748060705853 
2353	 9.1978897884661 
2354	-6.20800909202503 
2355	-17.2597858739232 
2356	-19.2680370146276 
2357	-14.8879866942992 
2358	-17.976587174613 
2359	-25.9851249983441 
2360	-33.8185131411105 
2361	-42.0972578885031 
2362	-36.9785444067391 
2363	-27.3891566256911 
2364	-14.3961648276973 
2365	-0.440032608718736 
2366	 2.7005945700847 
2367	 3.60270946880066 
2368	-3.20744161013098 
2369	-16.099872590135 
2370	-26.240365345525 
2371	-28.8489511965894 
2372	-30.7730556364451 
2373	-36.5905067859593 
2374	-36.696057325518 
2375	-42.6293211571997 
2376	-48.5480930404029 
2377	-44.6444059832428 
2378	-43.127319382221 
2379	-41.7028570955529 
2380	-42.8950882019521 
2381	-47.6113580158984 
2382	-43.4446173162203 
2383	-37.308354477856 
2384	-27.1206020688294 
2385	-14.0379679514348 
2386	-3.7645811245008 
2387	 7.78324511315027 
2388	 15.148627726153 
2389	 15.5845552373933 
2390	 1.62239350505389 
2391	-18.131085398354 
2392	-33.2655967647419 
2393	-38.5502581583998 
2394	-33.6440300061106 
2395	-26.6419231346344 
2396	-23.0135358003277 
2397	-28.27315384332 
2398	-26.880838168976 
2399	-26.4075298318233 
2400	-29.6221173506461 
2401	-25.1792719847864 
2402	-26.2853786952147 
2403	-28.6787021990317 
2404	-27.292998146182 
2405	-22.5175380077664 
2406	-22.7042586949124 
2407	-33.7486915614987 
2408	-40.2506083251626 
2409	-42.8680716773561 
2410	-45.9384912327083 
2411	-37.2746889687941 
2412	-27.6208634187813 
2413	-32.9690549328371 
2414	-34.854140550506 
2415	-25.8287331693943 
2416	-23.22622174427 
2417	-17.4181501610047 
2418	-4.922444343489 
2419	-3.63227862166884 
2420	-1.59940601961769 
2421	 11.0353700564356 
2422	 13.1578378876243 
2423	 8.44481475665927 
2424	 10.3843573071244 
2425	-0.569716368077354 
2426	-11.6439738965124 
2427	-18.2568410297513 
2428	-32.3093862108506 
2429	-41.2230267808591 
2430	-42.3822043767447 
2431	-40.5343384218848 
2432	-36.1157091888645 
2433	-23.553073680777 
2434	-17.9667909077358 
2435	-14.3056525148376 
2436	-4.8201690676134 
2437	-0.299256106821526 
2438	 5.33019977523886 
2439	 10.2736618735935 
2440	 8.26919494486505 
2441	-5.48908386730194 
2442	-22.0637597160101 
2443	-36.7080160346579 
2444	-51.194874276967 
2445	-58.319221835939 
2446	-65.1063863642001 
2447	-68.5069517942744 
2448	-53.2729781068421 
2449	-32.0632737072425 
2450	-11.9085207585917 
2451	 4.8671108208306 
2452	-1.02131093930794 
2453	-13.2289067258881 
2454	-16.8112686118665 
2455	-18.2018685901073 
2456	-22.2772295173693 
2457	-26.9709894336316 
2458	-32.1011763483967 
2459	-40.2616016110246 
2460	-37.0280299465951 
2461	-28.7108322178554 
2462	-23.46741379117 
2463	-16.3748026606177 
2464	-10.7551599601311 
2465	-6.74487859391187 
2466	-1.3746802591749 
2467	 6.39560172430678 
2468	 6.5115696137657 
2469	-5.15699147124974 
2470	-26.649681093736 
2471	-41.8141821363976 
2472	-44.9733820350953 
2473	-40.1467833394666 
2474	-29.4204639445943 
2475	-27.6964754503868 
2476	-34.3437295620329 
2477	-30.6084845346948 
2478	-25.57722635983 
2479	-14.8271568912111 
2480	 4.82144823730253 
2481	 7.20750378225576 
2482	-6.03214168980053 
2483	-18.5309947772153 
2484	-33.4007507816953 
2485	-39.5643434626894 
2486	-31.8276474535687 
2487	-21.8819890261674 
2488	-15.0283793141829 
2489	-14.3217934379841 
2490	-7.55242862512866 
2491	-9.23069322008814 
2492	-11.2088935062152 
2493	-9.90935619696984 
2494	-21.6859182131519 
2495	-19.9271896845134 
2496	-29.6762601765114 
2497	-43.1531111265851 
2498	-46.5491016438118 
2499	-45.1453787594654 
2500	-29.8338766258939 
