Wavelength	4mm_blackPETG00000.asd
350	 1.33161966395922 
351	 2.66347333720017E-02 
352	-1.94773516389013 
353	-1.20139684348296 
354	-0.708928532009687 
355	-0.104689951475562 
356	 0.7641236321221 
357	-0.406378715512206 
358	-1.08303586067017 
359	-0.623324338689515 
360	 1.19748457913796E-02 
361	-0.739924051795286 
362	-0.859005234042544 
363	 1.09800817688117 
364	 0.304906534908358 
365	-0.683938464877385 
366	-0.549845917348315 
367	 0.300824172861283 
368	 0.775744052358196 
369	 0.476456516134885 
370	-0.415784086518635 
371	 0.148703937692714 
372	-0.182578030750978 
373	-1.93653243568181 
374	-1.36815188949242 
375	-0.779782558051005 
376	-0.270798436362939 
377	 0.915910934638326 
378	 1.9520547417973 
379	 1.60247515964676 
380	-0.256435296505178 
381	-0.517843865006609 
382	-0.660759920008473 
383	-0.848868225567744 
384	-0.187355373479858 
385	-0.310644354984681 
386	-0.92056996207619 
387	-1.39263657454954 
388	-2.3050152652022 
389	-2.47164883607797 
390	-1.71516230881168 
391	-1.45861988080344 
392	-1.25162017199548 
393	-1.074250448655 
394	-1.03529229526222 
395	-1.28345188103997 
396	-1.6241681307286 
397	-1.6363813323497 
398	-0.161257803564781 
399	 0.159206029610668 
400	-0.449713664518874 
401	 0.401327736858488 
402	 0.896920739247826 
403	 0.383049813279427 
404	-0.790692627690428 
405	 1.18931786735864 
406	 2.22448399163812 
407	 0.735732236831906 
408	-0.842733120876885 
409	-1.5001778205196 
410	-1.31993346829811 
411	-1.0034657387348 
412	-0.670680474182945 
413	-0.100518035927252 
414	 0.57841431463638 
415	 9.14020683616548E-02 
416	-1.10105418461372 
417	-1.84084351352094 
418	-0.295432585982154 
419	 0.744809523454639 
420	 0.314573102512897 
421	-1.36375689877317 
422	-0.634688948469196 
423	-0.318682725605483 
424	-1.76564951478005 
425	-3.12158186125988 
426	-2.75174723583562 
427	-1.39451564346397 
428	-1.13193758813506 
429	-0.135577922276888 
430	 0.232227059118831 
431	-0.916630629185651 
432	-0.628251336968107 
433	-0.550957272900129 
434	-1.15901046523707 
435	-1.35181401772694 
436	-1.78449578947156 
437	-1.75360358644579 
438	-0.385159347781742 
439	 0.021713807557861 
440	 5.56848211751958E-02 
441	 0.177012752752426 
442	-0.656107840745323 
443	-1.41032349433518 
444	-1.42802526500812 
445	-0.334477232584399 
446	-0.724725029588901 
447	-1.00841969133781 
448	 0.70093177397877 
449	-0.539101752166021 
450	-0.970352111143548 
451	 0.531776977298152 
452	-2.56097690714656 
453	-2.74700136961502 
454	-0.37805018537769 
455	-0.893737100081444 
456	-1.77229166777378 
457	-1.84983190076852 
458	-0.764690184039623 
459	-0.851795597101379 
460	-0.872322265203421 
461	-0.414174227472373 
462	-0.829516097356456 
463	-1.87665340217856 
464	-2.84333496527598 
465	-2.66398411490563 
466	-1.0367398459129 
467	-0.305837665216287 
468	-1.98583694447738 
469	-2.22703790243883 
470	-1.56435319000896 
471	-0.920307321364904 
472	-1.80329761302625 
473	-2.12841430047423 
474	-1.88336894361574 
475	-1.93330910687126 
476	-1.424818975296 
477	-1.08166325983548 
478	-1.39238892970433 
479	-0.985826329875654 
480	-0.903530894888442 
481	-1.30648522944252 
482	-1.09553300183946 
483	-0.752243675452822 
484	-1.17309992186003 
485	-3.11013364474184 
486	-2.62290298706359 
487	-0.928231317491882 
488	-8.77544884815598E-02 
489	-2.39698324484242 
490	-2.77549551592178 
491	-0.933281779666106 
492	-3.01833695042791 
493	-3.92728271974889 
494	-2.79160795026396 
495	-0.633916566666372 
496	-0.536910536120374 
497	-1.35189952692426 
498	-1.59660154894787 
499	-0.97576810584303 
500	-1.55304570330548 
501	-3.12165752354659 
502	-2.48405106140332 
503	-1.27518530657522 
504	-0.635494998215467 
505	-1.47373134029097 
506	-2.56037689649665 
507	-3.07862165446648 
508	-2.75789265342163 
509	-2.96698823967811 
510	-2.04500234657103 
511	-0.442086514396678 
512	-1.63873358635963 
513	-2.34175070022201 
514	-2.53640865402286 
515	-3.39284031928864 
516	-3.43296870022499 
517	-2.62370156927253 
518	-1.48598984290366 
519	-1.52863507719869 
520	-1.99573423240679 
521	-2.56060842410917 
522	-3.65895454610601 
523	-3.76912780829501 
524	-2.94271298915401 
525	-2.11520843044901 
526	-3.03370970308262 
527	-3.82262601579221 
528	-2.96837681132413 
529	-3.25677880449551 
530	-3.58033143599387 
531	-3.36723139313221 
532	-3.05359018259831 
533	-2.04948017198185 
534	-0.909032453275197 
535	-0.823222133035323 
536	-2.33026642582194 
537	-3.42270803134761 
538	-2.5548622163693 
539	-2.76969937434157 
540	-3.31367399154733 
541	-3.58767235691474 
542	-3.6606700125856 
543	-2.29710065087474 
544	-0.996552700405494 
545	-2.89367821326876 
546	-2.62427425434433 
547	-1.72288512150546 
548	-2.55388741572629 
549	-2.3326615699784 
550	-2.36889708023448 
551	-3.05515029717633 
552	-2.2767353779904 
553	-1.02297184600425 
554	-0.712094658309622 
555	-3.24257196730056 
556	-2.80732295428402 
557	-1.87295244448591 
558	-4.15562984376095 
559	-4.73316595211028 
560	-3.40978048453443 
561	-1.26854091776044 
562	-1.40401293468561 
563	-2.23275773746377 
564	-2.80902697356768 
565	-2.56794766439015 
566	-2.38049712607295 
567	-1.93863847995609 
568	-0.833170747743187 
569	-1.33521681488662 
570	-1.87203858229025 
571	-1.44272285710283 
572	-2.29708011631013 
573	-2.99641889870637 
574	-2.85088160910229 
575	-1.89983781992469 
576	-1.37567642909573 
577	-1.68939776860316 
578	-2.73424350021541 
579	-3.01386874383232 
580	-2.76567877344439 
581	-2.523516938656 
582	-2.76638691334833 
583	-2.24028935739266 
584	-1.34397791976364 
585	-3.51868778753139 
586	-3.61202524757919 
587	-2.11624353338048 
588	-2.3323243992562 
589	-2.78046622297143 
590	-2.70648716210356 
591	-1.92558084797312 
592	-2.40750289621416 
593	-3.08539717878545 
594	-3.22370953179741 
595	-2.73876780064119 
596	-3.69991525548481 
597	-4.75146543652545 
598	-2.16553679740108 
599	-1.80266315702065 
600	-2.94515020823153 
601	-3.3136740628806 
602	-2.89691226835489 
603	-2.32320204378532 
604	-2.09246784564922 
605	-2.23524197826807 
606	-2.84324786431537 
607	-3.52853468822998 
608	-3.40718786819273 
609	-3.32705915320206 
610	-2.90981719487167 
611	-1.6324338481662 
612	-1.20480876946481 
613	-1.43605471085784 
614	-1.94064792173871 
615	-2.62653958273732 
616	-3.38158337839925 
617	-3.72259467951637 
618	-2.54480747075574 
619	-1.82239507085777 
620	-1.85437904445906 
621	-2.22669492786218 
622	-3.09602870563361 
623	-3.55061193300576 
624	-3.05736572049868 
625	-3.0864693862959 
626	-3.49086758423285 
627	-3.73876961647499 
628	-2.36042233746884 
629	-2.85783134889367 
630	-4.42025064243489 
631	-3.90007571197672 
632	-3.2218373241353 
633	-2.73241647726495 
634	-2.55154345434494 
635	-3.38642684390867 
636	-3.68590877463014 
637	-3.08674045852602 
638	-4.09626723127864 
639	-3.87050811962835 
640	-2.22994089073523 
641	-0.881385960138176 
642	-1.74680679253454 
643	-3.03406695098132 
644	-2.46377525367147 
645	-3.21169301809226 
646	-3.48376171781547 
647	-2.24657989887957 
648	-1.26564476482854 
649	-1.76044916557235 
650	-2.8089921808611 
651	-1.08851636927939 
652	-2.70707259500063 
653	-4.70086967980711 
654	-1.92575300084384 
655	-1.71351855226704 
656	-3.21760511046016 
657	-4.38005170963911 
658	-2.71379161464625 
659	-2.03002839266583 
660	-2.97459580624286 
661	-2.09239967107439 
662	-1.71069594958701 
663	-2.08102419576912 
664	-2.70494984493407 
665	-4.53818476623238 
666	-5.09583994019194 
667	-2.99555099280947 
668	-3.45357152955225 
669	-3.36738248897729 
670	-2.02953617316686 
671	-3.14417154540744 
672	-3.55619857408405 
673	-3.32015720134131 
674	-3.96555212045929 
675	-2.53198284606405 
676	-1.24651095777135 
677	-2.20562592450873 
678	-0.730893052227518 
679	-1.22488150416813 
680	-4.46288960471888 
681	-3.05584855750452 
682	-1.3720325460696 
683	-1.50206595094439 
684	-4.36765764851727 
685	-4.20607588745496 
686	-2.92419409658661 
687	-3.63730615028986 
688	-2.93274972837286 
689	-2.17217643693948 
690	-2.47040902824966 
691	-3.91377933118374 
692	-3.88845366635948 
693	-3.01160362229566 
694	-4.7059712049362 
695	-4.50865479590735 
696	-3.14492571697604 
697	-2.76605944959712 
698	-3.51042764113655 
699	-3.49336602319283 
700	-1.99361653342803 
701	-1.80056621518823 
702	-2.18964907242382 
703	-2.65486646776317 
704	-2.77920670375618 
705	-2.99216231646006 
706	-3.06523773064881 
707	-2.76591013915309 
708	-4.12682580898515 
709	-4.01711145759281 
710	-1.35808479606777 
711	-3.29998238101458 
712	-3.86930595817675 
713	-2.26831788932459 
714	-3.61336986035859 
715	-3.82004118357826 
716	-2.81306875725695 
717	-1.99030188597881 
718	-1.88713507166879 
719	-2.64772095979172 
720	-3.72547002508789 
721	-2.38653253594351 
722	-2.72986936990842 
723	-4.48247762183905 
724	-1.41421996653113 
725	-1.8476278526238 
726	-4.3006090064097 
727	-3.63792033987404 
728	-2.87191461417612 
729	-3.10710175013013 
730	-4.27528069125632 
731	-3.15038667285088 
732	-2.41180686139181 
733	-2.90767185243513 
734	-3.07735648461774 
735	-2.99154959899037 
736	-2.9699132312191 
737	-3.41150906015359 
738	-3.02443895725676 
739	-3.07447362276815 
740	-4.18637246006744 
741	-3.22266208997001 
742	-2.04006554542417 
743	-1.97458455549061 
744	-3.95737668057839 
745	-4.11197964458881 
746	-2.77057830085576 
747	-2.14366089017334 
748	-2.44849260573024 
749	-2.75937112188916 
750	-2.36585272100537 
751	-2.11379092815789 
752	-1.41608781353345 
753	-0.824249307888031 
754	-2.62635623863034 
755	-3.0451296704989 
756	-2.90176887128777 
757	-4.52856050247861 
758	-4.19535314645738 
759	-3.58686351416618 
760	-4.06658333593255 
761	-3.18852229331011 
762	-2.60005380916312 
763	-2.56441634795669 
764	-1.60814644182361 
765	-2.13636657303502 
766	-3.6430372921563 
767	-4.40413448292938 
768	-2.77944466701278 
769	-1.51008399447042 
770	-2.32688306227934 
771	-2.37546883140853 
772	-2.44473835343604 
773	-2.88311797289632 
774	-3.68997132718695 
775	-2.75927524037024 
776	-2.12238677132544 
777	-4.29093014501219 
778	-3.48359234581223 
779	-2.46946300621281 
780	-3.0974636924789 
781	-2.62741545685921 
782	-2.2328841127959 
783	-2.19869671022326 
784	-2.16042685348531 
785	-2.84584470376312 
786	-3.56860847378562 
787	-3.43937918949861 
788	-2.78911643601698 
789	-2.92987257785262 
790	-3.90447184152803 
791	-2.89197449863648 
792	-2.17816484762594 
793	-2.35908966928125 
794	-3.03666568464256 
795	-3.15958913030195 
796	-3.34464482505449 
797	-3.98640658051243 
798	-2.41619282774363 
799	-1.99850433138857 
800	-3.34733822997421 
801	-2.2533524964618 
802	-2.80364487093665 
803	-4.28554896446463 
804	-4.07726572438239 
805	-4.25915279304472 
806	-4.1858610869681 
807	-3.27413808955744 
808	-2.27261845159333 
809	-2.29178582537614 
810	-2.96369791190878 
811	-2.23472811992074 
812	-3.06173916513681 
813	-3.91157378009122 
814	-2.5824429547991 
815	-3.44753036441556 
816	-4.56093846021913 
817	-4.17755820686205 
818	-1.89843021029294 
819	-1.17280460740019 
820	-2.06520218130944 
821	-2.302018461716 
822	-2.08544120135615 
823	-2.19740763259317 
824	-3.06466702185348 
825	-2.76583663860868 
826	-2.37068378151868 
827	-2.43996290498968 
828	-2.72153370182486 
829	-2.69513499854134 
830	-2.67703404399948 
831	-3.25699718839436 
832	-3.91823505971177 
833	-3.94772504297582 
834	-3.06744957950799 
835	-2.03866247639651 
836	-1.21837858191814 
837	-0.959255864670526 
838	-1.57909430872369 
839	-2.61607443313495 
840	-3.54419668337422 
841	-3.90294375681243 
842	-3.6226829975343 
843	-2.7435290393242 
844	-1.83849258212192 
845	-2.41197133425785 
846	-2.65129753634777 
847	-2.83808577192627 
848	-3.79721260439574 
849	-2.92950542716055 
850	-1.65521398517834 
851	-1.39949992734497 
852	-2.54966711899727 
853	-2.47019829472422 
854	-1.78230707513008 
855	-3.42579470111604 
856	-3.17193719535181 
857	-2.84888280962633 
858	-4.12519713456726 
859	-1.80551419527082 
860	-1.16354690467272 
861	-3.16002665624254 
862	-2.90723706034718 
863	-3.63017126896911 
864	-4.17714775251294 
865	-2.69115992388464 
866	-2.76479204728165 
867	-3.15275270319929 
868	-2.98102070782967 
869	-2.99806647297035 
870	-2.8449021707726 
871	-2.36456925305554 
872	-1.63056277950166 
873	-2.54044937351446 
874	-3.22068924886634 
875	-2.62217042703563 
876	-4.05526221305113 
877	-4.00969573933691 
878	-2.22469284071786 
879	-1.06169355914698 
880	-0.891885355729815 
881	-1.32046090710568 
882	-1.86782106184138 
883	-3.04981569571837 
884	-3.20053082706873 
885	-2.31312453281944 
886	-2.37240706597411 
887	-2.13598203710197 
888	-1.62022537682874 
889	-1.40379366587096 
890	-3.3428386875762 
891	-3.92558671971311 
892	-2.48727911746227 
893	-3.41136512474031 
894	-3.57101961008467 
895	-3.18518856982341 
896	-3.47705283243212 
897	-3.33277267272661 
898	-3.55000667892525 
899	-4.20091060161223 
900	-3.44124625399059 
901	-2.71414111633595 
902	-2.64131935820526 
903	-3.36356685897469 
904	-3.81908186450209 
905	-3.58683960805917 
906	-2.88137177886432 
907	-3.26681438722695 
908	-2.86861150440063 
909	-2.07213754433435 
910	-2.48291952252817 
911	-3.32725418484913 
912	-3.28491065530605 
913	-2.10902036059197 
914	-2.72154931814929 
915	-3.1461035225061 
916	-2.26238879756855 
917	 0.159129034734021 
918	-1.33177851726156 
919	-3.53904624311982 
920	-3.47773528827313 
921	-3.72161422205789 
922	-3.19927818611564 
923	-2.44344609620968 
924	-2.99474074367782 
925	-2.41706464192233 
926	-1.9698046256898 
927	-2.70646973697807 
928	-2.90469954392455 
929	-3.20012007125966 
930	-3.24787586558896 
931	-2.16740736061687 
932	-3.20536798159937 
933	-4.17862965114083 
934	-3.28483057301566 
935	-3.01952728830095 
936	-2.83519375567069 
937	-2.43843469106163 
938	-1.70083123450834 
939	-0.474721051123169 
940	-0.774379611740409 
941	-3.20458084507933 
942	-3.68517758976121 
943	-2.63257804424277 
944	-1.48798335631969 
945	-2.16575592829047 
946	-1.52346282610274 
947	-1.43286151173561 
948	-2.96671165988746 
949	-3.45516112076762 
950	-2.26254062997954 
951	-1.13704735229494 
952	-2.65750104724432 
953	-2.09532405192997 
954	-1.59814784002748 
955	-2.40196883888875 
956	-1.78001566288053 
957	-2.48722025482441 
958	-3.66286785507774 
959	-3.25524055862565 
960	-2.74198040846262 
961	-2.95528918608866 
962	-3.74478891581769 
963	-3.49419153672864 
964	-2.83484269598551 
965	-2.32454218989579 
966	 3.32894880335585 
967	 1.56966246156808 
968	-1.82853554994267 
969	-2.66984393452385 
970	-1.79562282009653 
971	-0.765161875822562 
972	 1.90295101918575 
973	 2.64221183987866 
974	 3.8730037502493 
975	 4.33093344528109 
976	 2.75551345208308 
977	 2.83234682020125 
978	 3.35920092341391 
979	 1.20966619057333 
980	-0.604004604459585 
981	-1.51145424213498 
982	-2.43796427599293 
983	-2.86889437207277 
984	-2.67079335834874 
985	-0.37846933227507 
986	 2.03703411402912 
987	 6.85835169979662 
988	 8.21137626563862 
989	 8.16176849250901 
990	 7.35858461243381 
991	 4.04621373564929 
992	 2.36142629152811 
993	 0.307300153779594 
994	 1.77660315475853 
995	 1.3802467050293 
996	-1.15972186920528 
997	-0.197256069047779 
998	-1.21324424511124 
999	-3.34450937833896 
1000	-2.71630038724808 
1001	-3.3616539212425 
1002	-3.71914434397335 
1003	-3.76121480539926 
1004	-4.17859447220921 
1005	-3.37069204562872 
1006	-1.73549343672294 
1007	-2.08426399668643 
1008	-2.48220882495498 
1009	-2.29553581487988 
1010	-3.62683629744041 
1011	-2.7117650518192 
1012	-0.141254910285455 
1013	 2.82021823007206 
1014	 4.359770419644 
1015	 1.64990460208657 
1016	-1.08746297099183 
1017	-1.28114682486479 
1018	-3.25273948567597 
1019	-2.27376686027945 
1020	 1.21434600452157 
1021	 2.78660793346185 
1022	 5.9279633127191 
1023	 6.8612342591653 
1024	 7.27145947882325 
1025	 5.29094313524113 
1026	 2.96903251840391 
1027	-1.48488292192472 
1028	-3.87008069731266 
1029	-3.19586385658916 
1030	-2.20849261901726 
1031	 3.32389924570661 
1032	 7.58471712337114 
1033	 8.03369636792582 
1034	 6.72342332371164 
1035	-2.01504285832314 
1036	-6.87021772941118 
1037	-7.32776158895246 
1038	-10.1744615698015 
1039	-6.7514583172876 
1040	-5.18725148889482 
1041	-6.16718402170675 
1042	-5.1112211056017 
1043	-1.26171381623462 
1044	-0.286143097392568 
1045	 0.199719410196892 
1046	-0.255253026699945 
1047	-2.14983277381834 
1048	-0.831752116393009 
1049	-1.08597114557968 
1050	 0.530603914150366 
1051	 1.54604754506649 
1052	-2.4988781047227 
1053	-1.52438248714391 
1054	-0.215319636182649 
1055	-2.0897333213835 
1056	 0.422059731054858 
1057	 1.13767113611322 
1058	-1.31685181174617 
1059	-1.47449492003932 
1060	 1.70234418011522 
1061	 1.53393049820906 
1062	-1.44327583362795 
1063	-0.820765877442995 
1064	 1.16028373438607 
1065	-0.486884948464833 
1066	 1.90076601755605 
1067	 3.81793136905386 
1068	 2.214713078204 
1069	 1.74152539917855 
1070	-1.33173387281575 
1071	-5.62745398963683 
1072	-8.04747620183927 
1073	-9.82869548955342 
1074	-9.31820208491249 
1075	-3.9143480216598 
1076	-2.89156709640614 
1077	-3.85780986031901 
1078	-2.2526825892668 
1079	-1.09097656145696 
1080	 0.156596639447476 
1081	 5.18081985866948 
1082	 6.58112165351722 
1083	 5.3893574603889 
1084	 3.32248125867218 
1085	 2.63242398250348 
1086	 2.0336702503305 
1087	 0.289848674282385 
1088	-0.365550800134568 
1089	 0.328132084136547 
1090	 0.284674228846682 
1091	 0.837589576760518 
1092	 4.65196640027919 
1093	 3.97176347418296 
1094	-0.821673422299312 
1095	-1.09676412548822 
1096	-0.486133095384569 
1097	-1.50494877479937 
1098	-1.90476647500346 
1099	-1.088500318093 
1100	-0.12988735318481 
1101	-1.84360304231117E-02 
1102	 1.01995462928448 
1103	 2.25669039848641 
1104	 2.90722715809205 
1105	 1.45533688082959 
1106	 1.94101494417907 
1107	 4.60274502482328 
1108	 0.628808677914407 
1109	-3.95480986973116 
1110	-5.24145187722587 
1111	-6.72237482278284 
1112	-6.71470596676713 
1113	-3.3058229483537 
1114	-1.68702012619663 
1115	-0.720953012554223 
1116	 0.69840202830585 
1117	 4.53936112054038 
1118	 4.86918307338396 
1119	 1.61779475770303 
1120	 1.03343544828408 
1121	-0.086054795666027 
1122	-0.935373622039424 
1123	 0.536805990858549 
1124	 1.03425898618231 
1125	 1.37909974545308 
1126	-0.825673990952496 
1127	-0.510451073344662 
1128	 1.01780581490663 
1129	 1.08578887221747 
1130	 1.68113957833731 
1131	 0.83821003334378 
1132	-2.19784176646763 
1133	-2.78377909992853 
1134	-2.63023703296052 
1135	-2.99731844047852 
1136	-3.72393499016406 
1137	-2.09066063840031 
1138	 1.34985135007774 
1139	 2.79386578277035 
1140	 6.11967380165203 
1141	 7.53699855504427 
1142	 6.21099001747437 
1143	 5.06729855053493 
1144	 3.10044370246905 
1145	 2.15648686164774 
1146	 0.814239187305571 
1147	-0.247060788065969 
1148	-0.806434937456743 
1149	 1.94147080705641E-02 
1150	-0.121112554796769 
1151	-0.742877327461409 
1152	-0.971899826834452 
1153	-1.31960535580017 
1154	-0.96783994666214 
1155	-0.397692262561236 
1156	 0.474973206177932 
1157	 3.10631753856036 
1158	 3.48261635230236 
1159	 3.14231958532169 
1160	 2.08286776453887 
1161	-2.4024924186398 
1162	-3.02314061996662 
1163	-1.4633506412354 
1164	-0.858902100462527 
1165	 1.518374978131 
1166	 3.15651374651309 
1167	 4.19758457677058 
1168	 4.57573795695183 
1169	 4.51882007644228 
1170	 4.32511532721826 
1171	 3.97491257306312 
1172	 2.32190399844904 
1173	 2.061556385484 
1174	 2.68317036296631 
1175	 2.60805947425992 
1176	 2.42743279382573 
1177	 2.61662685260479 
1178	 3.49505113590785 
1179	 2.64423123028481 
1180	-4.62592249961104E-03 
1181	-0.490635463749436 
1182	 0.260565928374482 
1183	-0.708774391025891 
1184	-1.30285094187802 
1185	-2.10465606103878 
1186	-6.98970995440544 
1187	-7.61482133765944 
1188	-3.18069927738075 
1189	-1.41863349515232 
1190	 1.19271558425347 
1191	 2.08374026216831 
1192	 2.55620126047608 
1193	 1.38649432437845 
1194	 1.46858794257621 
1195	 3.31064289471157 
1196	 2.81635810326531 
1197	 0.148302679542084 
1198	 0.775617016476658 
1199	 2.97575124896392 
1200	 2.34504821502112 
1201	 2.55239203043434 
1202	 2.00190994007502 
1203	-3.03924563320865 
1204	-3.65022930845981 
1205	-0.372808912573091 
1206	 0.425877977047832 
1207	 2.61758303740057 
1208	 2.67293766173144 
1209	 2.84089807759839E-02 
1210	-1.09571360250581 
1211	-1.96365826835246 
1212	-5.19461321754747 
1213	-2.33423742664878 
1214	-1.01326721673417 
1215	-3.11293974237276 
1216	-4.45922019042173 
1217	-8.43800346287728 
1218	-10.9142268248409 
1219	-10.7561534809647 
1220	-8.17098388230585 
1221	-7.02428092163044 
1222	-5.71316822637725 
1223	-5.6582186191296 
1224	-6.54132413247817 
1225	-6.23334583447387 
1226	-6.5227212625891 
1227	-5.44280467610245 
1228	-2.69001060662682 
1229	-1.44386544651201 
1230	 0.489677445093822 
1231	 1.20994369293894 
1232	 0.947489886070483 
1233	 0.601483040156423 
1234	-1.8727826873187 
1235	-2.40298806237822 
1236	-1.70862885497055 
1237	-1.87400636964012 
1238	-1.84911757191239 
1239	-0.435840671532758 
1240	-0.904349248725622 
1241	-1.48085423139974 
1242	-2.26443756665767 
1243	-4.13996626223716 
1244	-4.25107773427663 
1245	-4.21723808495992 
1246	-4.52337256619942 
1247	-1.63208450096067 
1248	 2.79860058615084 
1249	 6.0460677770736 
1250	 6.75196639014069 
1251	 6.89779439668173 
1252	 5.95666458702765 
1253	 0.733637710288854 
1254	-1.67277326420368 
1255	-2.19419340090995 
1256	-2.33955177117462 
1257	-2.27229535338322 
1258	-2.68673702559698 
1259	-2.5433758695454 
1260	-2.71036062070792 
1261	-4.88804627769352 
1262	-3.82111809836267 
1263	 1.51331160772585 
1264	 3.26821239362241 
1265	 5.82614436504968 
1266	 7.34853096571003 
1267	 1.73476594815996 
1268	 5.56000289304177E-02 
1269	-2.63316079259589 
1270	-5.63191078923019 
1271	-3.31979346709018 
1272	-3.38226073009936 
1273	-2.17466908367258 
1274	-2.98781532730222 
1275	-9.00091357335934 
1276	-10.9662837743538 
1277	-8.67470165387382 
1278	-6.03625997260085 
1279	-3.24315230579172 
1280	 3.95758103892189 
1281	 6.72044738095071 
1282	 6.68214134458644 
1283	 7.69716422420104 
1284	 8.92798514752225 
1285	 8.51733094803317 
1286	 5.58676871221936 
1287	 3.85480703194963 
1288	 1.68209215637161 
1289	 1.26936915923519 
1290	-0.187103216746756 
1291	-1.62887036353072 
1292	-3.49424887491323 
1293	-6.27705965851959 
1294	-7.33336598038936 
1295	-5.31738305141895 
1296	-2.43672173292742 
1297	-0.261249983241639 
1298	-0.300832185519386 
1299	-2.32916745380845 
1300	-3.27084781467373 
1301	-3.16882939962991 
1302	-0.173839734925016 
1303	 5.7085973311338 
1304	 7.54881447299183 
1305	 5.98770552452312 
1306	 4.66105180584606 
1307	 2.41349027305452 
1308	 2.01501332090304 
1309	 3.48787495276729 
1310	 4.16000395936649 
1311	 3.91911766788787 
1312	 3.85611365105465 
1313	 3.86213115232477 
1314	 4.02753561020388 
1315	 3.83262519050372 
1316	 3.03462595681574 
1317	 1.20014594268494 
1318	 1.17863307980551 
1319	 0.854487685988879 
1320	 4.12413698017881 
1321	 7.7158079410847 
1322	 5.34673940615874 
1323	 1.63802869550788 
1324	-2.03562258746078 
1325	-7.32343663169692 
1326	-8.14426323437995 
1327	-8.31053416396992 
1328	-7.44799488135976 
1329	-4.23758173645134 
1330	-4.51567010372811 
1331	-2.9545446265822 
1332	-3.42588286874918 
1333	-2.78437677676889 
1334	 2.58769857888861 
1335	 4.38908621513405 
1336	 7.03177977177308 
1337	 7.42816283334737 
1338	 3.02770621195418 
1339	 0.542001790641845 
1340	-0.561899721632283 
1341	-1.57126710929705 
1342	-1.8547235007168 
1343	-1.19870709826401 
1344	 1.38861456368861 
1345	 2.18877230511201 
1346	 1.75176081642925 
1347	 0.238395874930382 
1348	-4.81297678006946 
1349	-6.08920998811381 
1350	-6.68475881323266 
1351	-7.92639955531355 
1352	-6.49995734823983 
1353	-6.04636838453522 
1354	-8.05527646515315 
1355	-5.90170304553943 
1356	-3.4425124558927 
1357	-5.10928298254841 
1358	-6.78838673920053 
1359	-7.77178248984544 
1360	-8.66650304336878 
1361	-5.18290885098952 
1362	-2.02855205695503 
1363	-2.77791553570193 
1364	-2.86678149519296 
1365	-3.23414027872899 
1366	-1.50501239812034 
1367	 1.60131391776076 
1368	 3.79305507178031 
1369	 5.14598660301056 
1370	 2.15501183488989 
1371	-0.475530553381581 
1372	 1.10546969351016 
1373	 1.97319528080459 
1374	 2.78818927610569 
1375	 3.1643888381408 
1376	 0.166160855501872 
1377	-3.96285504945626 
1378	-4.55841207098585 
1379	-2.91655687399308 
1380	-2.85786674703663 
1381	-1.34469612826076 
1382	 0.43247670300513 
1383	 0.425433577187295 
1384	-0.301604618283576 
1385	-1.01668253999685 
1386	-0.157435692846134 
1387	-1.43150363122041 
1388	-3.08129905607159 
1389	-0.383894919326227 
1390	-1.42113563207193 
1391	-9.07772708469039 
1392	-9.70163876019322 
1393	-8.28639842764286 
1394	-7.07650319216721 
1395	-3.29993431950217 
1396	 3.33777265121302 
1397	 5.43012951986677 
1398	 6.7900484107366 
1399	 5.35276261675482 
1400	 2.79801644252435 
1401	 1.53861622765547 
1402	-1.43489355039713 
1403	-0.836293655699093 
1404	 1.18711810068471 
1405	 7.51136526429988E-02 
1406	 1.48193120642577 
1407	 3.46151285956691 
1408	 4.993264779566 
1409	 8.7553385477166 
1410	 9.49699033143053 
1411	 8.10033188818706 
1412	 7.31485489847811 
1413	 6.22884486698301 
1414	 5.1988190261772 
1415	 4.68981885535251 
1416	 4.48578124700216 
1417	 3.51058325053775 
1418	 3.25115343649511 
1419	 2.20516246338291 
1420	-1.88719188657102 
1421	-6.44952259920979 
1422	-7.84587669803092 
1423	-6.98984477930396 
1424	-5.43898749062257 
1425	-3.67482508637898 
1426	-3.61390871134878 
1427	-3.3993827369119 
1428	-2.05243477002633 
1429	 6.71672871473503E-02 
1430	 2.64546324401172 
1431	 2.01936268992331 
1432	 0.586616185367896 
1433	 2.61871493925748 
1434	 3.82774930244728 
1435	 5.57013812003942 
1436	 7.85283579380794 
1437	 4.91158728295069 
1438	 0.794388328606251 
1439	-0.56434708313566 
1440	-0.6412994653745 
1441	-2.02559006796567 
1442	-2.80522379273323 
1443	-1.12684035679253 
1444	-1.52401575419092 
1445	-1.70344033951741 
1446	 0.957227425072831 
1447	 1.31171383992599 
1448	-1.43911010284929 
1449	-1.32432547626477 
1450	-0.780125636653879 
1451	-0.186991545504642 
1452	 1.46480975229158 
1453	 3.63586233752232 
1454	 2.62850556452127 
1455	 5.07189063570435 
1456	 6.57876903093389 
1457	 3.79657912540842 
1458	 4.19489869521953 
1459	 3.91900628221818 
1460	 2.21941564454722 
1461	 1.09005052841699 
1462	 1.58264179504618 
1463	 1.06652482362055 
1464	 0.40779587754678 
1465	 1.00883947347716 
1466	-2.10166324858664 
1467	-3.25810923957871 
1468	-1.99460265404799 
1469	-0.550761201887182 
1470	 2.37637540701477 
1471	 2.50418255575016 
1472	 0.610036603106684 
1473	-1.11589354823632 
1474	-3.07538549592027 
1475	-3.15540698044774 
1476	-2.87293652457984 
1477	-2.66210251407193 
1478	-0.791962994209863 
1479	 0.224482416321554 
1480	 1.00674202932906 
1481	 1.25478375768285 
1482	 2.01060470112365 
1483	 3.03067700320689 
1484	 3.49653948614498 
1485	 4.28360695872745 
1486	 2.65355584392234 
1487	 0.899692251911325 
1488	 7.15930042134762E-02 
1489	 0.714104764031855 
1490	 2.30111278026562 
1491	 2.48450649694237 
1492	 1.81932881150312 
1493	 0.555473482971774 
1494	 0.266794947994233 
1495	 1.17143462867775 
1496	 0.597793071044473 
1497	-8.96487375154706E-02 
1498	-1.28053912187991 
1499	-4.53409996660258 
1500	-3.09091007183915 
1501	-0.62645855103219 
1502	 0.399064611594143 
1503	 5.04202103025768 
1504	 6.2158343838204 
1505	 3.78046128454072 
1506	 1.04818668590886 
1507	-3.074820750751 
1508	-4.29870378382523 
1509	-4.00893050071655 
1510	-2.40565693189051 
1511	 1.05880516097664 
1512	 1.44089583622669 
1513	 0.396640872926475 
1514	 0.145558281648488 
1515	-0.890106400604633 
1516	-3.15906288472097 
1517	-5.72650503962355 
1518	-6.70520066142776 
1519	-6.42443598189393 
1520	-6.08911316513037 
1521	-3.75245909915693 
1522	-1.39787763618993 
1523	-1.20696547005366 
1524	-2.00244927574037 
1525	-2.21832119154393 
1526	-1.65739976770209 
1527	-4.0413687532361 
1528	-4.99339394018759 
1529	-1.91473942319126 
1530	-0.746095166634967 
1531	 0.780829804193754 
1532	 2.01347253038743 
1533	-1.07978967553186 
1534	-5.75197065773845 
1535	-8.62928757049614 
1536	-6.64205352164459 
1537	-4.14153611785988 
1538	-3.9742839344461 
1539	-4.03438134375752 
1540	-4.22412154340355 
1541	-3.74347500521242 
1542	-0.251303277221132 
1543	 4.67144189908322 
1544	 3.94940983173456 
1545	 1.85538777992141 
1546	 2.4935900107761 
1547	 1.56765962903453 
1548	 2.84224935887432 
1549	 5.09660003640387 
1550	 2.19023623889476 
1551	 0.713588998476327 
1552	 1.37397194483338 
1553	 5.89816458486375E-02 
1554	-1.57702438184053 
1555	-3.57931056939747 
1556	-5.09488465729449 
1557	-5.30895200340211 
1558	-4.27471516266413 
1559	-3.35974939110096 
1560	-2.55758090983861 
1561	-2.07308088041879 
1562	-5.68208109771362E-02 
1563	 4.11850807376773 
1564	 5.74701992585389 
1565	 5.12058133555742 
1566	 4.07400174712061 
1567	 3.01049713041495 
1568	 3.32626640349101 
1569	 1.62403833154385 
1570	-0.599237524673481 
1571	-2.73238274743974 
1572	-6.12677839954918 
1573	-4.23434713240273 
1574	-3.33463620258317 
1575	-3.39146579508256 
1576	-1.47213356676776 
1577	-3.68417523494512 
1578	-4.04936271026116 
1579	-3.36865806763303 
1580	-3.58470874391885 
1581	-2.46984499847791 
1582	-3.58405490583355 
1583	-4.71042823044524 
1584	-4.59699575126281 
1585	-6.42354216068084 
1586	-4.76111950642397 
1587	-1.21593068392026 
1588	-0.793759119704336 
1589	 2.79956822913121 
1590	 4.38616919752055 
1591	 3.07229448489238 
1592	 4.09489445271636 
1593	 3.13488501412068 
1594	 1.8973288886974 
1595	 1.38342585160949 
1596	-0.377270228160811 
1597	-1.7356788880656 
1598	-1.49773121345554 
1599	-0.172492705692312 
1600	 0.586183045426876 
1601	 1.00472259043884 
1602	 3.32504972145087 
1603	 2.77698792015308 
1604	-0.311168327280865 
1605	-1.03690649351666 
1606	-4.91998695192865 
1607	-6.91991446842253 
1608	-4.5126002866094 
1609	-3.39897168038877 
1610	-1.64461569598542 
1611	-0.218398874786788 
1612	-0.126817772986751 
1613	-0.109370426993564 
1614	 0.734614107362148 
1615	-0.231739401114606 
1616	-1.64760748435258 
1617	-1.7633145429827 
1618	-3.07823027316086 
1619	-2.74993515705677 
1620	-4.26180440981261E-02 
1621	 1.27984175951656 
1622	 2.06866486680641 
1623	 2.864086955655 
1624	 0.334145661609102 
1625	-1.34052443355386 
1626	 0.503496567363805 
1627	 0.201337493927199 
1628	-8.73616206382156E-02 
1629	-1.00583526988033 
1630	-5.12311286655947 
1631	-6.52596348465243 
1632	-5.18376165498833 
1633	-1.98633148322835 
1634	-0.432914104482831 
1635	 1.24200094285238 
1636	 2.87730802088092 
1637	 2.98149697818988 
1638	 2.22714038835803 
1639	 2.83011167648387 
1640	 2.57998721450163 
1641	 3.11975718802579 
1642	 6.63823030050901 
1643	 7.55255176679558 
1644	 5.68177533938522 
1645	 5.28107897477072 
1646	 4.86296051944003 
1647	 4.89628736465032 
1648	 6.14625299972786 
1649	 6.83642877591325 
1650	 7.49397121245505 
1651	 7.51028557022009 
1652	 6.8122233882439 
1653	 6.65985755367545 
1654	 6.53737057736157 
1655	 5.32888783718032 
1656	 4.44947180701152 
1657	 2.91762840419131 
1658	-1.0443097122325 
1659	-1.87696337167005 
1660	-1.76473375323808 
1661	-0.628965839568863 
1662	 3.52650807473335 
1663	 4.95659049230118 
1664	 6.06145550440362 
1665	 6.26279847505284 
1666	 3.90669150464244 
1667	 4.55457104970234 
1668	 6.81866231021843 
1669	 7.299163450624 
1670	 8.65728948354701 
1671	 8.3856206494978 
1672	 7.09693595111856 
1673	 3.90854537622912 
1674	-1.57577327254301 
1675	-3.35891151120862 
1676	-6.66476710420731 
1677	-6.0877159735342 
1678	-0.135004232906884 
1679	 0.838125153413443 
1680	 1.35344263437363 
1681	 0.300748522517362 
1682	-3.36377443592589 
1683	-3.23732806621051 
1684	-4.91623427806508 
1685	-3.75606586174992 
1686	-3.37026356161577 
1687	-3.11986118812869 
1688	-2.63273524576272 
1689	-1.60280306883482 
1690	-1.25246104281424 
1691	-0.916751002499165 
1692	-1.46180042881455 
1693	-4.52031709914087 
1694	-4.81990517816167 
1695	-3.66929215578436 
1696	-2.89642882660285 
1697	 1.49023711337471 
1698	 1.78712480805093 
1699	-3.17640709622268 
1700	-3.64589378142124 
1701	-3.97215291231051 
1702	-3.14227054916892 
1703	 3.87257551941847 
1704	 4.5555356029875 
1705	 1.047252094796 
1706	-0.905986707335756 
1707	-7.74432905714322 
1708	-7.75643761498286 
1709	-2.48554246616296 
1710	 0.223646375841175 
1711	 6.14992204859354 
1712	 8.71065714718607 
1713	 8.71264115568532 
1714	 8.41102653068403 
1715	 7.02235708021871 
1716	 5.8993542909299 
1717	 3.97053238609601 
1718	 1.75814577151341 
1719	-0.686622363547067 
1720	-2.45320990463761 
1721	-5.13343525573046 
1722	-5.81037657429434 
1723	-5.03639390174318 
1724	-4.02663350536827 
1725	-1.66863075836 
1726	-3.33228608098097 
1727	-2.73590661005239 
1728	-3.24620429553708 
1729	-5.12918491334252 
1730	-2.71327368664071 
1731	-1.63102883643662 
1732	 0.833371880637952 
1733	 2.37706422920839 
1734	 4.08678440967812 
1735	 4.59399890603501 
1736	 3.14335354219517 
1737	 2.09021039856113 
1738	 0.911231868177241 
1739	-1.12782572775431 
1740	-4.08548446464228 
1741	-5.63718328715857 
1742	-8.17729291362777 
1743	-8.83653686205377 
1744	-6.9233899692631 
1745	-6.30066744130458 
1746	-4.67927452243297 
1747	-4.14251115421366 
1748	-4.89314976456904 
1749	-5.23901379403473 
1750	-6.62575539046552 
1751	-5.92350589834001 
1752	-3.99751055038475 
1753	-2.47772288546097 
1754	 0.501617028395544 
1755	-0.840583365656488 
1756	 22.1344575037156 
1757	 20.1897100094834 
1758	 10.7122004917987 
1759	 6.61775859147595 
1760	 5.58835225587853 
1761	 12.7761921914694 
1762	 21.5422321408032 
1763	 21.5050829578281 
1764	 19.8528145005719 
1765	 21.1526893773461 
1766	 14.9671806631125 
1767	-11.3099700936862 
1768	-16.8364567179819 
1769	-12.9321606676714 
1770	-8.70855738883325 
1771	-6.9188407242203 
1772	 5.56536442517067 
1773	 8.08250183878824 
1774	-1.8500791864806 
1775	-1.70085131135224 
1776	 2.84043717018719 
1777	 4.73823439569822 
1778	 7.12688337526293 
1779	 14.7339084810885 
1780	 23.1783336873298 
1781	 16.5183528445164 
1782	 8.12827920885831E-02 
1783	-1.61665100659609 
1784	 0.491307055280544 
1785	 1.1892769243876 
1786	 4.88616686974482 
1787	 25.9040795825882 
1788	 30.8959711172911 
1789	 16.5699255839693 
1790	 9.5528831504278 
1791	-8.83330470782967 
1792	-25.8594656976848 
1793	-28.4146613062815 
1794	-24.0263355735425 
1795	-8.19917664931023 
1796	 16.6577323428237 
1797	 30.7190259521288 
1798	 35.139490724317 
1799	 27.2989215949834 
1800	 7.45667520340958 
1801	-2.51115143779239 
1802	 8.41498541454998 
1803	 11.8684296580947 
1804	 27.2653168705099 
1805	 27.5438192761851 
1806	 24.7137095025265 
1807	 6.15762414264257 
1808	-9.69148054645503 
1809	-14.5194548869756 
1810	-9.78311998856408 
1811	-5.32296959899311 
1812	-2.20367171813645 
1813	 1.29957406783954 
1814	 5.84592869294405 
1815	 12.7939591956286 
1816	 15.4613955451577 
1817	 14.1053800018002 
1818	 19.4823935051599 
1819	 13.5982443770963 
1820	 10.4758942244391 
1821	 11.6114623811003 
1822	 21.609525760213 
1823	 15.5349014924103 
1824	 2.83957960595222 
1825	-4.74177015293221 
1826	-20.9980770373474 
1827	-33.9970197409704 
1828	-46.4410712408623 
1829	-51.6126483874648 
1830	-47.7410275940158 
1831	-40.7715695464097 
1832	-33.2867468877834 
1833	-5.95374889239436 
1834	 2.68305271629022 
1835	-3.63358811594592 
1836	-2.17218915653095 
1837	-0.132504948304546 
1838	-6.99006996145319E-02 
1839	 1.2063215126992 
1840	 0.700049473955499 
1841	-0.897135775634887 
1842	-6.80834029345159 
1843	-8.57917655980446 
1844	-9.53411520695984 
1845	-9.13248301801912 
1846	-0.882465953441569 
1847	-4.79979453773434 
1848	-16.9781373415017 
1849	-26.0197184752694 
1850	-41.6889093956908 
1851	-45.455069297061 
1852	-40.4329097885183 
1853	-18.7679504074626 
1854	-8.5698674223029 
1855	 8.77140387896571 
1856	 16.2122738749165 
1857	 13.3040892537862 
1858	 20.3044196647154 
1859	 17.2554142768953 
1860	 9.87451230218161 
1861	 4.69534929111608 
1862	-0.995007895123027 
1863	 3.89214328900057 
1864	 24.5402688350594 
1865	 27.6771956076623 
1866	 34.1884152548469 
1867	 28.7735332410953 
1868	 2.32919735136287 
1869	-12.6054485491615 
1870	-13.8670601499358 
1871	-12.7196587465739 
1872	-10.1690059487389 
1873	-11.0428851653272 
1874	-18.5925218434042 
1875	-27.1766374222532 
1876	-31.7421213945115 
1877	-31.8832765034514 
1878	-29.5481701419718 
1879	-30.4785842593179 
1880	-31.4341665270144 
1881	-21.4100011953611 
1882	-18.3077411266702 
1883	-8.30636232428704 
1884	 1.36931141222334 
1885	-5.73799805222913 
1886	-6.51703441783622 
1887	-9.9284332757555 
1888	-21.583668130017 
1889	-26.9989901744222 
1890	-19.6365938434229 
1891	-12.9055220866349 
1892	-1.90629445552283 
1893	 12.2168774803886 
1894	 20.5853420322436 
1895	 18.9311935432384 
1896	 22.1795235290956 
1897	 22.6057754124561 
1898	 15.5097820834104 
1899	 12.706276842498 
1900	 16.424399319472 
1901	 9.21022559035735 
1902	-2.38740446587097 
1903	-7.83680344271305 
1904	-22.8113108187132 
1905	-32.6283549122424 
1906	-26.1423023453382 
1907	-8.65148906378893 
1908	-2.62199014876922 
1909	 12.220988209461 
1910	 14.8671835419978 
1911	-5.63292894794733 
1912	-14.7660458671201 
1913	-20.5507005723157 
1914	-23.1108726443141 
1915	-28.3316120734271 
1916	-20.089929605462 
1917	-23.932913072626 
1918	-22.532652443662 
1919	-20.7788756707745 
1920	-19.6559877909615 
1921	-18.5598043986154 
1922	-10.8409911699756 
1923	-12.7996185689494 
1924	-24.8133758056388 
1925	-25.8175443372236 
1926	-24.9354045239109 
1927	-24.7673197825257 
1928	-23.8218221507553 
1929	-25.5065280330256 
1930	-18.3630046966514 
1931	-9.70558378238986 
1932	-4.61080051779292 
1933	 11.3724160321693 
1934	 17.4939716468201 
1935	 12.7825256664809 
1936	 11.1617023242834 
1937	 6.17025179100152 
1938	 6.23445873159358 
1939	 4.77775066760216 
1940	 7.69970145818216 
1941	 13.5327774100529 
1942	 32.1260002342099 
1943	 32.3077691785285 
1944	 20.3983505317614 
1945	 20.9373289401824 
1946	 20.3787152296061 
1947	 18.0401086160229 
1948	 26.7649781586292 
1949	 27.2722336643898 
1950	 13.0841826825097 
1951	 7.79617974907853 
1952	 7.50193593232506 
1953	 6.26085871158607 
1954	 4.52010773507097 
1955	 2.92334434954312 
1956	 3.56559250784978 
1957	 4.15279356778623 
1958	 5.80766641244521 
1959	 12.836011956065 
1960	 14.7050509059202 
1961	 13.3403326221854 
1962	 13.0386980965096 
1963	 11.914411921429 
1964	 9.96095628069341 
1965	 6.21223536884073 
1966	 3.6145225807083 
1967	 4.73450476302038 
1968	 8.26948462740967 
1969	 8.53417667171532 
1970	 13.425287734191 
1971	 11.8364543246578 
1972	-0.409048233860207 
1973	-2.76523467645229 
1974	-2.49884782120737 
1975	-0.799978611551767 
1976	 6.25476813152801 
1977	 13.0063447864731 
1978	 28.4050319886227 
1979	 29.1742430014804 
1980	 29.6723220499051 
1981	 30.3035697181307 
1982	 24.1310008238663 
1983	 4.50025681555686 
1984	-2.06719511433726 
1985	-7.41740227068319 
1986	-9.84679557471815 
1987	-2.04543000805144 
1988	-1.91472445883485 
1989	-8.32865427439086 
1990	-8.02781089811481 
1991	-4.11363285159416 
1992	-3.05195382003588 
1993	-6.49320049468188 
1994	-6.17160404610183 
1995	-6.22739525231638 
1996	-14.2190973786306 
1997	-12.8112894439119 
1998	-0.327469633661007 
1999	 3.7788153156693 
2000	 3.11752033949034 
2001	 7.1831800300662 
2002	 16.3918647425312 
2003	 18.3821944850337 
2004	 15.5399680435523 
2005	 18.7977303036338 
2006	 22.3598175976112 
2007	 20.1837547323665 
2008	 23.0672971664455 
2009	 15.9033580376728 
2010	 9.08029053740021 
2011	-11.373958369734 
2012	-14.1917385287038 
2013	-4.7142310859344 
2014	-0.902717314170732 
2015	 11.0565440622874 
2016	 9.8452574780365 
2017	-6.3488582761375 
2018	-11.7632848237272 
2019	-24.537963839705 
2020	-17.5638258787086 
2021	-1.11622858427986 
2022	 3.89316681460704 
2023	 12.4535782102439 
2024	 5.82559347666528 
2025	-3.19138876979321 
2026	-26.4267216817135 
2027	-32.9490777831122 
2028	-38.9017248209212 
2029	-37.9101743621389 
2030	-23.0156504321638 
2031	-13.1053097430306 
2032	-3.38524006642958 
2033	 5.23911688088099 
2034	 27.0399950770692 
2035	 23.433540218196 
2036	 15.4549418671519 
2037	 8.11190565680947 
2038	-18.3838820888052 
2039	-27.463552444569 
2040	-28.780786437207 
2041	-21.9483156479343 
2042	-17.2396041772992 
2043	-2.31967116142701 
2044	-1.11058841467943 
2045	-11.7292371751964 
2046	-14.9913066232201 
2047	-22.2546706545541 
2048	-21.7098324452561 
2049	-12.2458438681193 
2050	-0.411404316467106 
2051	-6.86800448480024 
2052	-6.94931558792906 
2053	-10.6674466712173 
2054	-18.7093400323838 
2055	-14.941352313235 
2056	-10.7855407217609 
2057	-11.5164681060401 
2058	-15.9945743330638 
2059	-17.0117181984556 
2060	-16.783146914031 
2061	-17.3742000329268 
2062	-15.6387533624871 
2063	-17.5978707370643 
2064	-23.8479476035069 
2065	-25.0329534704616 
2066	-28.9465748092851 
2067	-18.7508973763487 
2068	-3.24743540228386 
2069	-0.226970419343331 
2070	 2.29181639210295 
2071	 1.02129524228759 
2072	 0.877090328184808 
2073	 7.00337196211852 
2074	 14.4913710615624 
2075	 19.1326062621156 
2076	 22.0061842783682 
2077	 24.5813453765367 
2078	 19.8314630484397 
2079	 7.69405168050314 
2080	-0.141874699679578 
2081	-11.9495771402036 
2082	-23.0590457121507 
2083	-24.1311321859861 
2084	-21.9334097226269 
2085	-23.9425307350082 
2086	-17.4882090748539 
2087	-4.6954233763826 
2088	 8.03489010018086 
2089	 27.1119563776239 
2090	 45.0969617671889 
2091	 48.3570288995922 
2092	 53.4263151197179 
2093	 45.5436298652009 
2094	 25.4756247710621 
2095	 14.0304063024653 
2096	 8.84367856031174E-02 
2097	-8.99731395581255 
2098	-11.532879216989 
2099	-16.3675818505291 
2100	-22.4050306327316 
2101	-33.1908794517575 
2102	-42.1306488200595 
2103	-42.3408621108527 
2104	-37.4064042649911 
2105	-22.4819399942297 
2106	-1.67066665570729 
2107	 21.3675811110079 
2108	 37.9665580650797 
2109	 40.0506650136562 
2110	 30.9914953278878 
2111	 16.486339606207 
2112	 6.58921135491018 
2113	 6.88903967020913 
2114	 6.22503869224987 
2115	 14.6883590223721 
2116	 11.9248904597187 
2117	 2.50039386621625 
2118	-2.08339242888864 
2119	-8.33703966189782 
2120	-20.5357804254879 
2121	-18.3846230069821 
2122	-19.3268802329278 
2123	-20.888047218372 
2124	-6.12264614602701 
2125	 3.59335740871161 
2126	 6.98735613573255 
2127	 2.36337372917826 
2128	-7.22315401290499 
2129	-14.3197850584252 
2130	-14.3729827825044 
2131	-7.39622322123111 
2132	-4.37536073758213 
2133	 5.21780882811861 
2134	 9.37474449375373 
2135	 10.3700424527834 
2136	 10.6463762132404 
2137	 7.38472096021974 
2138	-1.25114316478754 
2139	-6.28734052248387 
2140	-14.4228514879149 
2141	-17.5636412672841 
2142	-19.1565482329537 
2143	-27.9522118092544 
2144	-26.3066034692639 
2145	-16.8912001229649 
2146	-12.4190736572943 
2147	-10.7937029401085 
2148	-13.271841389721 
2149	-26.8429264746131 
2150	-27.0224617454614 
2151	-12.5604764705196 
2152	-2.47406862054622 
2153	 2.42822371683113 
2154	-0.58472208817447 
2155	-9.95779776984526 
2156	-14.2389882291671 
2157	-9.73454364358283 
2158	-2.99313914970395 
2159	 16.6105542557115 
2160	 23.4292843881254 
2161	 29.3485155608504 
2162	 26.6234415529254 
2163	 15.3809357046084 
2164	-0.698120056236256 
2165	-14.7377974543147 
2166	-20.9406338625518 
2167	-18.0808880999184 
2168	-14.1301657792908 
2169	-10.4588232151946 
2170	-8.9181404983996 
2171	-10.9938966729803 
2172	-12.0662245933032 
2173	-3.25092791309747 
2174	 7.47055193402408 
2175	 16.8793275281516 
2176	 27.1727326037019 
2177	 22.1397797124766 
2178	 14.0708276516715 
2179	 11.1370523282309 
2180	 6.72668193820333 
2181	 9.3054753849144 
2182	 12.7522536398259 
2183	 7.40476783124473 
2184	-9.52122771476462 
2185	-17.0390168691425 
2186	-29.6668065600066 
2187	-34.1301151309725 
2188	-30.6049524936926 
2189	-23.2083526312836 
2190	-23.3180313433886 
2191	-17.1274400921365 
2192	-9.31612624003746 
2193	-6.28527850557948 
2194	 11.7411838706481 
2195	 30.5198838355593 
2196	 30.5979652833305 
2197	 23.1917391961958 
2198	 7.5006566235752 
2199	-12.3445248113223 
2200	-23.8703830494311 
2201	-17.2214847305882 
2202	-14.1254055116364 
2203	-17.4603365631922 
2204	-10.7233275309541 
2205	-9.77021861337005 
2206	 1.84683725287935 
2207	 14.5695682720004 
2208	 16.8543610680471 
2209	 23.866524249702 
2210	 20.5645606502362 
2211	 5.94920175040315 
2212	-3.36217323060682 
2213	-22.8689993788705 
2214	-32.184047804392 
2215	-37.5069368126016 
2216	-39.8244348529624 
2217	-35.4976957698732 
2218	-26.4930877601733 
2219	-15.2008759974366 
2220	 4.03047786527549 
2221	 29.7724359404594 
2222	 53.4902643454646 
2223	 61.6828579918426 
2224	 56.1112601860598 
2225	 41.688283076763 
2226	 25.7924091814598 
2227	 16.3820717964548 
2228	 15.2868974926004 
2229	 14.4698625536085 
2230	 10.9011439357151 
2231	 8.45628134309124 
2232	 1.9833666728034 
2233	-3.42552754383255 
2234	-7.65812403228327 
2235	-3.94622878867536 
2236	 9.22623235072077 
2237	 22.6454357871454 
2238	 34.4669585449614 
2239	 38.422413508611 
2240	 34.8271512689309 
2241	 22.8157932013975 
2242	 8.33532448265935 
2243	-1.12775135421746 
2244	-10.3046643081998 
2245	-16.5480672994244 
2246	-23.6966095695221 
2247	-21.7360815604966 
2248	-12.3638753152567 
2249	-10.2448947342633 
2250	 4.05083867616477 
2251	 8.18184972378913 
2252	-3.98755860015674 
2253	-3.19784628376559 
2254	 1.20502785389847 
2255	 3.35278388224339 
2256	 8.81251922415295 
2257	 13.8564150918045 
2258	 16.7543428293992 
2259	 13.1023333919602 
2260	 17.2609447115494 
2261	 27.9611807959581 
2262	 25.3358170728398 
2263	 18.9766089519645 
2264	 3.69206017224197 
2265	-16.1090685679235 
2266	-15.9189119509866 
2267	-9.68318234471668 
2268	 2.62685730806987 
2269	 11.9855788987898 
2270	 21.4605629175682 
2271	 29.2277899347715 
2272	 22.2014606129549 
2273	 22.5066375908879 
2274	 20.8587638460508 
2275	 24.1634750989119 
2276	 40.5353684664389 
2277	 52.0939753719442 
2278	 49.5743937670625 
2279	 34.5747887608334 
2280	 19.7690391018103 
2281	 7.80828710619029 
2282	 4.53877061162152 
2283	 12.5485962836752 
2284	 18.2440751678153 
2285	 14.493222302778 
2286	 10.7414466313393 
2287	 3.69994069247237 
2288	-6.4540060299356 
2289	-24.5235692647041 
2290	-26.065334467446 
2291	-22.7460235966938 
2292	-20.8113768141481 
2293	-7.40359452679369 
2294	-0.795708830008473 
2295	-2.84295155210321E-02 
2296	 5.75527183213645 
2297	 14.5478703452658 
2298	 20.3868750324439 
2299	 27.7861963815854 
2300	 29.4519792323561 
2301	 25.1943617399459 
2302	 25.5949934181549 
2303	 22.0743954233209 
2304	 21.5881557359988 
2305	 28.5235871656018 
2306	 32.88336619202 
2307	 37.5923346476324 
2308	 39.3549646180984 
2309	 44.0836574684035 
2310	 36.5289062024252 
2311	 24.0493072849798 
2312	 13.1660970222605 
2313	 1.15766524311227 
2314	-8.56762797341641 
2315	-17.4720616366266 
2316	-15.9813716170386 
2317	-13.0613180908779 
2318	-9.201563711835 
2319	-5.63569989699351 
2320	-11.6890207032166 
2321	-20.9868732309465 
2322	-27.9525288612032 
2323	-20.3938426075537 
2324	-4.16534654531808 
2325	 4.70278099727395 
2326	 16.7841291267378 
2327	 25.5770529711305 
2328	 21.1378304026552 
2329	 29.2879986747025 
2330	 33.9268866641128 
2331	 27.2064184754345 
2332	 18.1440202687418 
2333	 0.334328927437233 
2334	-20.0219382567021 
2335	-35.1786292601461 
2336	-32.9180621497409 
2337	-28.7510363798855 
2338	-19.0776323741424 
2339	-0.314337003200847 
2340	 8.92986606167955 
2341	 22.591285494025 
2342	 43.2196053649755 
2343	 50.527086059968 
2344	 43.595895988936 
2345	 34.4504463471344 
2346	 19.2758360362466 
2347	 8.12635211129499 
2348	 14.1596625981552 
2349	 10.684457778551 
2350	 12.9705101803718 
2351	 19.3906945039431 
2352	 9.16174862719215 
2353	 17.6474996553 
2354	 19.3294421331669 
2355	 13.7650858387249 
2356	 14.4530126432055 
2357	 6.64238942430427 
2358	-1.35812527462017 
2359	-11.7941116906259 
2360	-6.7523578325166 
2361	-6.31534684108705 
2362	-7.36274826071633 
2363	 3.72228865266236 
2364	 2.56055287262897 
2365	 5.67307406518312 
2366	 12.4099853276417 
2367	 8.05949528571039 
2368	 5.69218270367853 
2369	 4.08995042543267 
2370	-0.31927167975638 
2371	 8.0562003441514 
2372	 11.5254612299082 
2373	 0.86647257886981 
2374	-5.07890810451733 
2375	-8.04665867065898 
2376	-9.95341617766845 
2377	-5.77258899557386 
2378	 3.23175388405734 
2379	 4.54290956839924 
2380	 3.20202184852618 
2381	 3.87624246405442 
2382	 1.26219030068544E-02 
2383	-0.495238635520491 
2384	-3.36244466668147 
2385	-8.7683142738002 
2386	-2.53207825983862 
2387	 8.96751168647768E-02 
2388	-0.473863392390434 
2389	 8.6624178523734 
2390	 7.83723053607516 
2391	 7.89970889828381 
2392	 13.9727246922228 
2393	 10.787593876437 
2394	 11.4985077167811 
2395	 6.82440938025995 
2396	-10.7095241727753 
2397	-22.5940790217698 
2398	-30.3498178894173 
2399	-29.3757483403529 
2400	-14.8272048206261 
2401	-5.01730939184724 
2402	-1.56712706982464 
2403	-2.43644825873507 
2404	-7.27009609227354 
2405	-12.739311533277 
2406	-12.832219609581 
2407	-7.26117049991259 
2408	-1.35192782761925 
2409	 1.17543012625974 
2410	-1.20589217179231 
2411	-1.33889290008804 
2412	-7.43309461078889 
2413	-7.98476264389589 
2414	-3.49877619831417 
2415	-8.06624455399556 
2416	-6.53451262912551 
2417	-2.64094305071977 
2418	 6.30975614896888 
2419	 18.7638247590632 
2420	 22.4966246518329 
2421	 24.9563888389918 
2422	 22.6054080890778 
2423	 18.012875786525 
2424	 18.8355550920584 
2425	 22.5418191378563 
2426	 28.2688237274039 
2427	 33.4754421412239 
2428	 38.65736793103 
2429	 33.6249556794495 
2430	 24.4893536419465 
2431	 21.4402605765601 
2432	 13.1501195802407 
2433	 12.3981964790484 
2434	 17.8778055643472 
2435	 15.0081701226223 
2436	 17.7304571172349 
2437	 31.6400331124916 
2438	 41.8530894255261 
2439	 50.8043253571866 
2440	 54.1696058007418 
2441	 39.0173918337825 
2442	 21.4218889074122 
2443	 5.13318299162315 
2444	-7.03829770388812 
2445	-14.1924059285153 
2446	-20.4679644389214 
2447	-27.3045635694989 
2448	-29.7400892446121 
2449	-27.1655628304507 
2450	-30.9981763427491 
2451	-26.3157934974545 
2452	-19.3863455974705 
2453	-12.3064403182187 
2454	 0.547116290445367 
2455	 3.96474821483925 
2456	-0.723686028189213 
2457	-6.8988050074707 
2458	-9.88927419350659 
2459	-15.1564575828786 
2460	-19.5681874004531 
2461	-23.6995526565128 
2462	-26.1086737681249 
2463	-19.447859388389 
2464	-10.3851895272142 
2465	-10.5847475339112 
2466	-8.35065105248422 
2467	-2.00065696040373 
2468	 0.418388500639569 
2469	 9.30078269846902 
2470	 6.47785569665671 
2471	 0.484287420696833 
2472	 0.227000599618808 
2473	 0.392759778819804 
2474	 1.71039190671891 
2475	 1.5161299091721 
2476	-7.01510356962355 
2477	-20.7184725913212 
2478	-30.4725297905968 
2479	-40.6827901763142 
2480	-38.1216815766489 
2481	-28.0686543631147 
2482	-15.719703323576 
2483	-3.18211044459422 
2484	 8.88885826911457 
2485	 15.0368725967778 
2486	 17.050398297884 
2487	 21.6322281096053 
2488	 11.9488918090659 
2489	-2.00782759531406 
2490	-12.5219721631995 
2491	-17.1554850666916 
2492	-11.9746210791696 
2493	 1.52336009638814 
2494	 16.6653670840853 
2495	 16.7284723625988 
2496	 8.43329137741049 
2497	 4.77773618707417 
2498	-2.09037974454379 
2499	-4.57756250196163 
2500	-3.18632289644683 
