Wavelength	reference_blackPETG00000.asd
350	 20.9490873797429 
351	 20.7100616905711 
352	 20.6661653484854 
353	 21.9140700454736 
354	 23.8310001503332 
355	 25.9217222049613 
356	 27.5111019192789 
357	 27.1537831394196 
358	 26.9493185321499 
359	 28.2378893498229 
360	 31.6000692483417 
361	 31.6195694728843 
362	 32.0133669684131 
363	 36.0233467030201 
364	 35.0413400688009 
365	 33.9722312887663 
366	 35.3389600450547 
367	 38.4237287526735 
368	 39.5756800335813 
369	 39.2750292517222 
370	 39.3330432895065 
371	 39.3211688892663 
372	 39.8188659450092 
373	 40.9485173319064 
374	 41.7283462339476 
375	 43.8106249275338 
376	 46.5503814488082 
377	 48.2215274206538 
378	 49.3761697479904 
379	 50.0760579490745 
380	 50.7436547912913 
381	 52.9520740303016 
382	 56.1939696470016 
383	 59.2433582491759 
384	 60.2436511144297 
385	 61.8612615045852 
386	 64.4491195686355 
387	 67.5815875731575 
388	 70.1028062765943 
389	 73.6317180933545 
390	 78.470247164374 
391	 82.823936535378 
392	 86.4427751864908 
393	 90.4159762678615 
394	 96.2899280910223 
395	 102.985641666358 
396	 110.017343571008 
397	 117.285331673484 
398	 125.434293781754 
399	 134.388338983649 
400	 144.111420430263 
401	 154.613717417151 
402	 167.403548222913 
403	 181.351189565311 
404	 195.276766033992 
405	 211.069175937212 
406	 227.266848676882 
407	 243.726843556403 
408	 262.457789216982 
409	 283.123266858868 
410	 305.083568239415 
411	 327.60615569988 
412	 351.753755928112 
413	 377.261826112996 
414	 403.716338869303 
415	 430.934010910635 
416	 458.048409333478 
417	 485.484684607261 
418	 514.830046516927 
419	 543.531466557054 
420	 571.193587950844 
421	 598.219294117767 
422	 625.747822859634 
423	 652.888411395596 
424	 679.087533786002 
425	 704.585098027809 
426	 729.776813338997 
427	 754.628188797108 
428	 778.831087842362 
429	 802.139602424035 
430	 824.379640907905 
431	 845.706461621905 
432	 867.319756181062 
433	 888.742302889853 
434	 909.063475705236 
435	 926.73924356972 
436	 943.021414136567 
437	 959.723779333657 
438	 978.402865935118 
439	 995.576440819621 
440	 1011.5973784251 
441	 1027.17939390028 
442	 1042.63128182719 
443	 1057.11746366457 
444	 1071.50251924821 
445	 1088.23840331458 
446	 1103.57672415744 
447	 1117.60689880511 
448	 1131.4174897402 
449	 1144.43453446094 
450	 1158.38908328102 
451	 1173.21360516831 
452	 1184.11430912707 
453	 1197.70329937895 
454	 1213.50685506782 
455	 1226.43459077166 
456	 1239.49346945061 
457	 1253.70282771387 
458	 1269.33373039454 
459	 1285.03809815884 
460	 1301.88475645424 
461	 1319.61842606532 
462	 1335.17941843266 
463	 1350.98734914309 
464	 1368.39108240159 
465	 1388.22433864597 
466	 1408.77163947497 
467	 1429.16294868362 
468	 1449.14083960911 
469	 1469.72966049279 
470	 1492.55075752334 
471	 1517.56893399482 
472	 1542.12700258035 
473	 1568.81168265259 
474	 1596.1637365647 
475	 1621.35543387396 
476	 1650.37885610935 
477	 1680.46842110896 
478	 1709.26743274106 
479	 1741.83818651054 
480	 1774.66333138209 
481	 1806.97624661249 
482	 1841.98657016782 
483	 1877.23168800842 
484	 1912.36870579505 
485	 1948.21068521091 
486	 1988.78529866627 
487	 2030.55718654706 
488	 2070.72338242937 
489	 2113.26533790767 
490	 2156.90242567036 
491	 2201.53458176358 
492	 2248.69965273013 
493	 2296.90146915159 
494	 2346.77225852057 
495	 2399.34367493295 
496	 2450.13272321938 
497	 2500.3536033943 
498	 2552.32597574815 
499	 2609.08404697356 
500	 2666.63659564116 
501	 2723.41578990656 
502	 2780.84678325653 
503	 2838.76315517175 
504	 2897.22995118867 
505	 2956.45463846119 
506	 3017.54968020972 
507	 3079.82369002627 
508	 3142.80965952721 
509	 3207.87772008106 
510	 3274.48153100669 
511	 3341.61726732408 
512	 3407.41896310051 
513	 3474.72921503738 
514	 3544.9529989267 
515	 3618.59411071417 
516	 3692.40671419877 
517	 3766.81840563457 
518	 3842.16004291736 
519	 3915.8333839444 
520	 3989.70032829461 
521	 4065.02990607832 
522	 4142.28110247688 
523	 4221.41319737549 
524	 4301.51981213787 
525	 4381.18196076861 
526	 4459.52698383248 
527	 4538.58895846711 
528	 4619.6650060933 
529	 4698.94081341268 
530	 4777.5966196321 
531	 4856.87751500413 
532	 4938.32909527039 
533	 5018.81261602322 
534	 5097.75946065425 
535	 5175.8772240925 
536	 5252.51447022886 
537	 5328.53165788611 
538	 5404.51703036057 
539	 5478.32064612804 
540	 5551.73200907337 
541	 5625.60149621136 
542	 5698.89780907494 
543	 5771.973411889 
544	 5843.63642363767 
545	 5911.85573987447 
546	 5980.50668892268 
547	 6049.50249703095 
548	 6117.60436429117 
549	 6182.96231059205 
550	 6248.31072291928 
551	 6314.39403730958 
552	 6376.98412006515 
553	 6440.01286312922 
554	 6502.20205414603 
555	 6558.47399776639 
556	 6615.26814606363 
557	 6670.41149189212 
558	 6720.40008721996 
559	 6769.7201627878 
560	 6818.94231014285 
561	 6866.36889654364 
562	 6905.88741937379 
563	 6938.87299661066 
564	 6965.94372450893 
565	 6987.26502168779 
566	 7005.06371436648 
567	 7017.47999969008 
568	 7021.56488163761 
569	 7019.16612247223 
570	 7009.78232801992 
571	 6994.85264147774 
572	 6982.79885110634 
573	 6966.26411443895 
574	 6943.77418623737 
575	 6921.00950552809 
576	 6890.85445367584 
577	 6853.58172071516 
578	 6812.39276258422 
579	 6765.98295245151 
580	 6717.08306939236 
581	 6668.83917059225 
582	 6622.73644054992 
583	 6584.5875552775 
584	 6552.48593296687 
585	 6511.90698341866 
586	 6473.19949668857 
587	 6435.63785337201 
588	 6393.93163150974 
589	 6357.53146952829 
590	 6326.60817825678 
591	 6300.73300421543 
592	 6287.41573400246 
593	 6278.64861187222 
594	 6269.82706671755 
595	 6262.62782205935 
596	 6264.78307113451 
597	 6280.63461681085 
598	 6311.98039896364 
599	 6343.24572761838 
600	 6373.16856548849 
601	 6405.09165005311 
602	 6443.20627523143 
603	 6480.94789145082 
604	 6515.25286537126 
605	 6552.98988788917 
606	 6592.85888621539 
607	 6639.40214806747 
608	 6702.76607048389 
609	 6777.59767177681 
610	 6863.16887963591 
611	 6958.29540384829 
612	 7050.58211473132 
613	 7138.69071607785 
614	 7221.89682112776 
615	 7294.58395054751 
616	 7366.35933823352 
617	 7440.47938159809 
618	 7512.66053012627 
619	 7585.74713067718 
620	 7660.58654048804 
621	 7737.11842823626 
622	 7813.0936763577 
623	 7891.53068419676 
624	 7974.19987397066 
625	 8055.14161106104 
626	 8133.66116189612 
627	 8210.09849664399 
628	 8286.73913472846 
629	 8358.22883855505 
630	 8423.68711790139 
631	 8484.85736320301 
632	 8546.11375200969 
633	 8604.06281434721 
634	 8655.41762424193 
635	 8707.02233462554 
636	 8757.90810201814 
637	 8806.62953587199 
638	 8851.05288518848 
639	 8896.94393108696 
640	 8944.89060177465 
641	 8991.77674343813 
642	 9043.19941384349 
643	 9095.87468680601 
644	 9145.33727017249 
645	 9197.48136686756 
646	 9252.02866061314 
647	 9308.38821622195 
648	 9367.32517468243 
649	 9424.43958489893 
650	 9480.95337700523 
651	 9543.90710531939 
652	 9605.18344917363 
653	 9669.38116112025 
654	 9743.50609104386 
655	 9813.15571939868 
656	 9879.90296643153 
657	 9947.39828693032 
658	 10017.9082588991 
659	 10092.3815180507 
660	 10170.2029070371 
661	 10248.8486755362 
662	 10326.9998350119 
663	 10405.1076165899 
664	 10484.3956166462 
665	 10561.6854168589 
666	 10640.2060349229 
667	 10723.2483163321 
668	 10809.9917091509 
669	 10898.9487437422 
670	 10989.0251361479 
671	 11079.3083736972 
672	 11173.1791664995 
673	 11269.6568520637 
674	 11365.5745719523 
675	 11467.1705866896 
676	 11569.1061944463 
677	 11667.1294228375 
678	 11775.7368547563 
679	 11882.6951087201 
680	 11983.8679790738 
681	 12093.7461534865 
682	 12203.3260880669 
683	 12311.3239283161 
684	 12421.0268811238 
685	 12533.7039633497 
686	 12647.9632257932 
687	 12761.9213132869 
688	 12876.3622653796 
689	 12991.1070859292 
690	 13106.2433366606 
691	 13223.1353379741 
692	 13337.1827971855 
693	 13448.7700536125 
694	 13562.5273975178 
695	 13671.4339190029 
696	 13777.9950161119 
697	 13886.5521671476 
698	 13991.762776316 
699	 14094.5838229532 
700	 14195.2049862895 
701	 14289.5123487623 
702	 14382.8083644565 
703	 14475.1661103513 
704	 14561.3776163594 
705	 14649.3111062559 
706	 14733.6351177654 
707	 14806.5168775456 
708	 14882.2280837486 
709	 14956.7848073436 
710	 15025.8926530836 
711	 15091.3514282899 
712	 15153.9809265877 
713	 15213.911419099 
714	 15270.4088754542 
715	 15325.1997270612 
716	 15378.0880731528 
717	 15428.6536716217 
718	 15482.5528707113 
719	 15534.7215024049 
720	 15581.1950691762 
721	 15626.9318801378 
722	 15667.8508489527 
723	 15705.8195973744 
724	 15750.8232530108 
725	 15793.0687074185 
726	 15834.692849865 
727	 15881.3877256341 
728	 15921.2291541368 
729	 15959.6607733063 
730	 16001.6862691397 
731	 16040.3809465447 
732	 16083.0526494985 
733	 16129.5800448418 
734	 16169.7602818214 
735	 16207.0128746733 
736	 16242.6416750864 
737	 16277.0574370287 
738	 16304.8598241927 
739	 16329.2334579599 
740	 16353.3077336725 
741	 16374.1510994372 
742	 16397.1468245186 
743	 16421.0206244679 
744	 16434.59332178 
745	 16452.0863491305 
746	 16470.136540441 
747	 16479.158302929 
748	 16491.9835913511 
749	 16503.5558944254 
750	 16508.9812542088 
751	 16514.0111155878 
752	 16516.1849658143 
753	 16515.5991230864 
754	 16515.998299686 
755	 16513.4804278148 
756	 16506.2240934574 
757	 16493.034444303 
758	 16472.6110559928 
759	 16439.8188411295 
760	 16399.2719046776 
761	 16388.9125038962 
762	 16381.2190999377 
763	 16366.4532955372 
764	 16355.7782728135 
765	 16342.210399537 
766	 16324.5246181316 
767	 16303.1796731226 
768	 16274.8929199249 
769	 16243.6462156964 
770	 16212.5037770695 
771	 16178.899232403 
772	 16145.4972447804 
773	 16111.9662001222 
774	 16074.7833572379 
775	 16038.8947455137 
776	 16002.7584907987 
777	 15962.9861627196 
778	 15920.6552494753 
779	 15874.0428398236 
780	 15823.6367994728 
781	 15776.0164301885 
782	 15728.1648681367 
783	 15677.7232025174 
784	 15622.5525738602 
785	 15565.5116911597 
786	 15508.0343228902 
787	 15451.1242601745 
788	 15396.0899961063 
789	 15337.9635404867 
790	 15276.2440873195 
791	 15221.4353391882 
792	 15161.5147888208 
793	 15094.5847770897 
794	 15024.9813844915 
795	 14955.6376939541 
796	 14886.4804199103 
797	 14817.3959617412 
798	 14752.5914400211 
799	 14686.8955173149 
800	 14617.8329605976 
801	 14547.2727213405 
802	 14476.1539299035 
803	 14406.8941242245 
804	 14341.8160811284 
805	 14273.964684649 
806	 14204.1893138896 
807	 14133.3363274923 
808	 14057.1898125555 
809	 13982.1178838407 
810	 13909.2240347633 
811	 13833.8434193494 
812	 13760.9533906832 
813	 13688.2113978319 
814	 13611.9783799331 
815	 13537.8429923545 
816	 13462.2768899921 
817	 13384.8409648149 
818	 13315.076435872 
819	 13239.9256607119 
820	 13159.913741504 
821	 13084.2301799129 
822	 13001.2954014286 
823	 12915.9956804321 
824	 12835.2868449442 
825	 12758.2875917694 
826	 12683.5186122095 
827	 12610.0438572333 
828	 12538.2126927741 
829	 12461.7687061615 
830	 12378.6264982161 
831	 12288.7632618255 
832	 12191.7005774253 
833	 12093.7386816004 
834	 12000.5519437226 
835	 11913.9154935604 
836	 11835.3859854567 
837	 11765.0898035776 
838	 11701.8991680138 
839	 11648.1448800423 
840	 11598.6984535693 
841	 11546.7234362724 
842	 11487.9473887632 
843	 11421.7336171242 
844	 11349.8004151677 
845	 11276.8966460864 
846	 11203.3051298137 
847	 11129.5954092231 
848	 11055.9893842388 
849	 10980.9379256661 
850	 10906.1816812775 
851	 10832.8917434655 
852	 10759.8028002924 
853	 10687.0217936565 
854	 10615.2305834388 
855	 10545.5332479325 
856	 10476.6556922679 
857	 10407.5088341776 
858	 10337.198504672 
859	 10265.4253646965 
860	 10192.4106781969 
861	 10119.2868697752 
862	 10048.3443667252 
863	 9979.33749956842 
864	 9910.97936990015 
865	 9841.85424219539 
866	 9773.55261049808 
867	 9704.29290425339 
868	 9633.74750670069 
869	 9564.99489294717 
870	 9496.89902273248 
871	 9429.95064976859 
872	 9365.03079194834 
873	 9298.83834764042 
874	 9230.86798982081 
875	 9161.22047529619 
876	 9089.82511634694 
877	 9018.95374096532 
878	 8949.68987851529 
879	 8882.12676410686 
880	 8816.41939057023 
881	 8751.99458677017 
882	 8687.65268023647 
883	 8619.78030990741 
884	 8556.60191686543 
885	 8497.74382530361 
886	 8432.49065553236 
887	 8365.49956111552 
888	 8298.28365336398 
889	 8231.6837374137 
890	 8166.50520103207 
891	 8102.64219282017 
892	 8039.09082104628 
893	 7973.4644928657 
894	 7907.5974380096 
895	 7841.51498724441 
896	 7774.88804462626 
897	 7709.84906189445 
898	 7644.40702001913 
899	 7578.4637177252 
900	 7517.03548997423 
901	 7454.20740903841 
902	 7389.94428033085 
903	 7326.88373650667 
904	 7264.52482038927 
905	 7202.86321839924 
906	 7141.60954584264 
907	 7079.65914491349 
908	 7018.48335510332 
909	 6956.92859618527 
910	 6892.51803365255 
911	 6826.94785597996 
912	 6763.17421669141 
913	 6702.50874645676 
914	 6641.64522192664 
915	 6580.67981334712 
916	 6520.17054394394 
917	 6460.83189268433 
918	 6398.79028131937 
919	 6335.87665258339 
920	 6274.17083631881 
921	 6213.48936646188 
922	 6151.12028750106 
923	 6088.65937434576 
924	 6030.59246902356 
925	 5971.91082131135 
926	 5913.4505079823 
927	 5855.95018212495 
928	 5796.65899726112 
929	 5735.05001509161 
930	 5672.07431463134 
931	 5609.72528903151 
932	 5546.15762437507 
933	 5481.53728985226 
934	 5417.40065229962 
935	 5358.42368137461 
936	 5299.61945527305 
937	 5241.08205253104 
938	 5186.17748765163 
939	 5129.51442063885 
940	 5071.20127787344 
941	 5012.42084974293 
942	 4954.08623198684 
943	 4897.2465068735 
944	 4841.29020861203 
945	 4784.62043642458 
946	 4728.79494358434 
947	 4672.98043078371 
948	 4616.77187290127 
949	 4561.43053662036 
950	 4509.16189787574 
951	 4457.71432727673 
952	 4403.16159528073 
953	 4352.80649090758 
954	 4302.19932103551 
955	 4248.8746219406 
956	 4197.92013231747 
957	 4144.89232479795 
958	 4090.9827271395 
959	 4039.27513531797 
960	 3987.88553597919 
961	 3935.21987851874 
962	 3881.69889970238 
963	 3831.02616874378 
964	 3779.79619334494 
965	 3727.98043777991 
966	 6241.35880692112 
967	 6312.79114517463 
968	 6386.75957678988 
969	 6469.43337533383 
970	 6558.75391919637 
971	 6653.55845555966 
972	 6759.12997652311 
973	 6862.34167383035 
974	 6970.13081185303 
975	 7078.97041415047 
976	 7191.66490547511 
977	 7300.44434747416 
978	 7404.83989377867 
979	 7507.8146406381 
980	 7605.2610407052 
981	 7695.80244285356 
982	 7784.06361500143 
983	 7873.53695855551 
984	 7953.22941953822 
985	 8027.20350498235 
986	 8102.13246812226 
987	 8174.55386827446 
988	 8244.72231074037 
989	 8314.40322440309 
990	 8382.16404700685 
991	 8447.26831905974 
992	 8510.84255750443 
993	 8572.98998242769 
994	 8631.98441859167 
995	 8689.18570621574 
996	 8746.23484046505 
997	 8806.06611420936 
998	 8868.23781306908 
999	 8932.82976197818 
1000	 8997.89071299095 
1001	 9061.41321955156 
1002	 9122.78794296547 
1003	 9185.05944889814 
1004	 9249.18362942157 
1005	 9311.40460595748 
1006	 9374.36529778859 
1007	 9435.15254464454 
1008	 9495.14894651339 
1009	 9549.95290403117 
1010	 9605.16522775172 
1011	 9662.79565173527 
1012	 9719.16873054156 
1013	 9776.14371547521 
1014	 9832.91201506873 
1015	 9886.77997246445 
1016	 9937.47079781364 
1017	 9991.23835036047 
1018	 10046.4070133375 
1019	 10096.383570438 
1020	 10146.9984373033 
1021	 10197.8753683022 
1022	 10247.0105362264 
1023	 10298.4406903739 
1024	 10353.1246313146 
1025	 10406.3561261125 
1026	 10456.5691789887 
1027	 10510.4848306018 
1028	 10562.6155209953 
1029	 10617.3907496561 
1030	 10676.7292580095 
1031	 10730.3800921727 
1032	 10783.8822208652 
1033	 10839.014349416 
1034	 10894.5151055649 
1035	 10952.5983290366 
1036	 11008.4987297058 
1037	 11065.443112986 
1038	 11121.9656262663 
1039	 11175.8173111875 
1040	 11230.014649324 
1041	 11286.85399923 
1042	 11339.3348924743 
1043	 11388.6871790322 
1044	 11436.9933515453 
1045	 11488.0435185572 
1046	 11539.1326383674 
1047	 11590.5532684568 
1048	 11639.6728602386 
1049	 11683.9162971192 
1050	 11725.6358219898 
1051	 11765.3928967232 
1052	 11806.7872755634 
1053	 11849.231725231 
1054	 11891.5603998519 
1055	 11935.8372525942 
1056	 11978.2666252524 
1057	 12018.0820763123 
1058	 12056.1220695048 
1059	 12093.4469147798 
1060	 12125.9701075286 
1061	 12163.2495874729 
1062	 12202.0501339391 
1063	 12241.9237755821 
1064	 12284.2699370397 
1065	 12324.7336382068 
1066	 12364.950916917 
1067	 12407.7506902347 
1068	 12449.0934543107 
1069	 12491.8983368334 
1070	 12538.2949483013 
1071	 12581.6148893212 
1072	 12627.2167878113 
1073	 12674.7334833253 
1074	 12723.3392206298 
1075	 12773.4453774547 
1076	 12824.9510769407 
1077	 12876.732103158 
1078	 12932.0761245355 
1079	 12990.9731500599 
1080	 13047.9374077683 
1081	 13105.669600225 
1082	 13165.7313512866 
1083	 13226.1534346424 
1084	 13285.9294959046 
1085	 13351.5534140434 
1086	 13419.2243191752 
1087	 13483.5962618481 
1088	 13552.9440806674 
1089	 13626.4039543585 
1090	 13700.3065230204 
1091	 13780.4345448291 
1092	 13866.3050867047 
1093	 13955.0971187448 
1094	 14047.2777751086 
1095	 14143.3400210184 
1096	 14243.4787350416 
1097	 14347.0430962753 
1098	 14453.0893531055 
1099	 14565.3122080196 
1100	 14681.7781546201 
1101	 14803.656811549 
1102	 14931.1865551702 
1103	 15063.0887879288 
1104	 15201.4730749046 
1105	 15341.3526317476 
1106	 15484.2130810495 
1107	 15632.827058262 
1108	 15784.0441435014 
1109	 15937.2779424212 
1110	 16096.2937428884 
1111	 16260.7025776564 
1112	 16427.2392248937 
1113	 16598.1384117169 
1114	 16771.1715301622 
1115	 16945.2907459438 
1116	 17126.2833593725 
1117	 17310.4348513008 
1118	 17500.5516860798 
1119	 17698.198132247 
1120	 17898.0302914182 
1121	 18104.5287881912 
1122	 18310.1018917429 
1123	 18516.1385748581 
1124	 18726.3589925555 
1125	 18938.3108796137 
1126	 19151.5866893427 
1127	 19371.9275273946 
1128	 19600.2426419735 
1129	 19823.4228453974 
1130	 20051.0912731451 
1131	 20271.8286944876 
1132	 20488.8894082462 
1133	 20705.471324832 
1134	 20919.8145268874 
1135	 21132.6717099173 
1136	 21345.0833226752 
1137	 21553.9515928845 
1138	 21760.0993222549 
1139	 21964.4013347256 
1140	 22165.4937310621 
1141	 22365.9176017481 
1142	 22566.4388201635 
1143	 22762.5178716216 
1144	 22956.3565018282 
1145	 23147.229595166 
1146	 23333.4578083757 
1147	 23518.3070633646 
1148	 23701.0846511715 
1149	 23882.0719805187 
1150	 24060.0826321842 
1151	 24236.8730943078 
1152	 24407.9424755021 
1153	 24575.5944174833 
1154	 24739.4477648043 
1155	 24900.8172640205 
1156	 25054.0855784422 
1157	 25200.7985074578 
1158	 25345.8424365335 
1159	 25485.9961604349 
1160	 25620.9819609127 
1161	 25753.3856193858 
1162	 25880.9359211479 
1163	 26002.4018436521 
1164	 26119.007775009 
1165	 26232.2650945012 
1166	 26340.5864342004 
1167	 26442.8157334613 
1168	 26540.3604749015 
1169	 26635.0290763218 
1170	 26724.6818700813 
1171	 26809.648539963 
1172	 26889.9153501734 
1173	 26964.5155672371 
1174	 27032.4334348012 
1175	 27101.6377421503 
1176	 27167.5852087395 
1177	 27230.2262282797 
1178	 27291.77967022 
1179	 27348.8066327691 
1180	 27400.4807764921 
1181	 27450.6939526145 
1182	 27497.2284759195 
1183	 27545.1835762305 
1184	 27590.4977301378 
1185	 27635.9764605982 
1186	 27683.6739319985 
1187	 27728.2331466858 
1188	 27771.8634067567 
1189	 27812.4365731068 
1190	 27849.718859173 
1191	 27886.446776019 
1192	 27921.9278598941 
1193	 27955.9503283995 
1194	 27990.7260439909 
1195	 28023.2150368539 
1196	 28053.0121443538 
1197	 28079.84973811 
1198	 28105.7495814935 
1199	 28130.3063779097 
1200	 28152.5756107759 
1201	 28173.2621159677 
1202	 28191.1133035837 
1203	 28206.6158003057 
1204	 28218.8595708003 
1205	 28227.6665687894 
1206	 28236.7463981865 
1207	 28244.2604824711 
1208	 28249.503451321 
1209	 28253.5525852115 
1210	 28255.8300483223 
1211	 28255.2996535817 
1212	 28253.0435920263 
1213	 28252.540957555 
1214	 28247.4469010243 
1215	 28245.8961876074 
1216	 28244.4959232511 
1217	 28240.3800658924 
1218	 28240.6690954442 
1219	 28235.4188001895 
1220	 28229.8758435074 
1221	 28227.2209845492 
1222	 28225.5405103003 
1223	 28223.5692457501 
1224	 28224.9633959847 
1225	 28222.8646528977 
1226	 28217.8847240466 
1227	 28215.172330227 
1228	 28211.3537470572 
1229	 28208.9185863945 
1230	 28208.5400052518 
1231	 28208.5806879084 
1232	 28208.517430022 
1233	 28210.3356729753 
1234	 28214.6363808129 
1235	 28216.172508386 
1236	 28216.3394108985 
1237	 28218.7444622666 
1238	 28220.722629102 
1239	 28227.803680731 
1240	 28239.6021012021 
1241	 28250.8566782338 
1242	 28261.9006124018 
1243	 28273.5067011991 
1244	 28285.5051118798 
1245	 28299.3604712345 
1246	 28316.3498808858 
1247	 28335.8002310682 
1248	 28354.2764488044 
1249	 28375.6803036356 
1250	 28399.5099736334 
1251	 28425.3684410509 
1252	 28450.9028213165 
1253	 28478.8066544086 
1254	 28506.7267514601 
1255	 28534.4061758676 
1256	 28562.7166721618 
1257	 28592.8870636667 
1258	 28622.8442577683 
1259	 28651.3700296433 
1260	 28682.0390813382 
1261	 28714.8287285043 
1262	 28748.1782165846 
1263	 28778.6391462754 
1264	 28806.1580005949 
1265	 28827.0225127848 
1266	 28842.6860013326 
1267	 28858.0451247847 
1268	 28868.9441573727 
1269	 28874.7930058027 
1270	 28879.3592374874 
1271	 28879.7898785815 
1272	 28872.2283613585 
1273	 28861.4905357965 
1274	 28846.9293723901 
1275	 28824.7060949994 
1276	 28797.545261542 
1277	 28762.837924383 
1278	 28723.1097599016 
1279	 28679.4888433738 
1280	 28627.4565248485 
1281	 28577.371866328 
1282	 28527.6584578157 
1283	 28470.9200502202 
1284	 28407.2547108774 
1285	 28348.4395801155 
1286	 28285.4107040606 
1287	 28226.3953717149 
1288	 28171.8479986573 
1289	 28118.2494665048 
1290	 28058.8490312528 
1291	 28002.2366424316 
1292	 27948.0764351058 
1293	 27896.9625553375 
1294	 27852.6527372161 
1295	 27812.9897704101 
1296	 27780.2278344114 
1297	 27752.8627567534 
1298	 27732.335749397 
1299	 27716.1045179321 
1300	 27706.675968551 
1301	 27701.4668741216 
1302	 27698.9661964222 
1303	 27708.9910708774 
1304	 27720.2391929565 
1305	 27733.0183247201 
1306	 27756.2416806007 
1307	 27776.2381334317 
1308	 27793.8376478014 
1309	 27814.8878437696 
1310	 27835.9831297089 
1311	 27859.8688126979 
1312	 27886.3219316868 
1313	 27919.5959776278 
1314	 27949.935762125 
1315	 27978.1745123639 
1316	 28009.2824572842 
1317	 28038.0934775245 
1318	 28076.2916454183 
1319	 28119.1017695569 
1320	 28167.462696956 
1321	 28221.812450801 
1322	 28275.9832986374 
1323	 28331.7606363571 
1324	 28392.4434598062 
1325	 28457.7112521669 
1326	 28531.6582546583 
1327	 28610.7292532468 
1328	 28692.8399061983 
1329	 28783.7547753595 
1330	 28882.7319803092 
1331	 28985.2187887159 
1332	 29093.3987950791 
1333	 29206.2767503595 
1334	 29320.1474329341 
1335	 29439.2744876369 
1336	 29562.4897464495 
1337	 29687.3947726183 
1338	 29812.6719558399 
1339	 29938.2630857452 
1340	 30065.7743221122 
1341	 30197.7290435662 
1342	 30331.2163308849 
1343	 30459.9338935177 
1344	 30584.8066246689 
1345	 30701.3173841013 
1346	 30808.9649612788 
1347	 30910.002088791 
1348	 31004.3927942163 
1349	 31091.5375054802 
1350	 31172.9366490051 
1351	 31243.7333512488 
1352	 31301.5605559897 
1353	 31360.680964359 
1354	 31412.2149777443 
1355	 31463.5430360533 
1356	 31519.0846096163 
1357	 31579.1289515623 
1358	 31642.6805648535 
1359	 31714.4348806024 
1360	 31796.8335038282 
1361	 31892.3691957638 
1362	 32006.003650273 
1363	 32137.8668651672 
1364	 32288.9950100254 
1365	 32451.781250929 
1366	 32629.1890393295 
1367	 32812.5843377207 
1368	 33000.4334658072 
1369	 33186.6466426488 
1370	 33368.0151974933 
1371	 33530.0287828801 
1372	 33660.850926753 
1373	 33766.9474186082 
1374	 33829.1420986078 
1375	 33860.4392356504 
1376	 33862.9940120388 
1377	 33839.0245345605 
1378	 33798.9508032078 
1379	 33745.5444273648 
1380	 33681.4205568838 
1381	 33616.3662370226 
1382	 33555.9518729127 
1383	 33497.5269509973 
1384	 33455.9591262862 
1385	 33426.0969278741 
1386	 33405.7759094484 
1387	 33394.7418029487 
1388	 33391.4058746923 
1389	 33400.5241701504 
1390	 33424.3524765308 
1391	 33461.4636173989 
1392	 33515.4161234528 
1393	 33584.5820372047 
1394	 33665.0218923068 
1395	 33760.5537226348 
1396	 33868.0947339333 
1397	 33981.1539903963 
1398	 34102.6841427588 
1399	 34232.2495041563 
1400	 34357.8221359331 
1401	 34482.7008196494 
1402	 34605.3243810452 
1403	 34712.8175371314 
1404	 34807.3001351955 
1405	 34886.6004224192 
1406	 34956.5458623602 
1407	 35018.3713950465 
1408	 35072.6046939225 
1409	 35127.0600992004 
1410	 35177.5204995743 
1411	 35221.6557339784 
1412	 35265.332749666 
1413	 35304.4730359811 
1414	 35338.7211470119 
1415	 35370.7288295436 
1416	 35392.8428952016 
1417	 35411.2528143608 
1418	 35423.7617530817 
1419	 35427.8330808977 
1420	 35429.4455095494 
1421	 35422.1712116614 
1422	 35409.7757733583 
1423	 35393.6806800055 
1424	 35373.3697287296 
1425	 35347.1191104809 
1426	 35316.945632961 
1427	 35287.3987852807 
1428	 35249.0391939411 
1429	 35208.3502943337 
1430	 35168.6789249625 
1431	 35121.2307259094 
1432	 35073.0841718022 
1433	 35022.8966303693 
1434	 34968.6217868875 
1435	 34918.3719870288 
1436	 34871.0263146102 
1437	 34827.2748656078 
1438	 34786.2318725047 
1439	 34741.6886631648 
1440	 34694.3934019086 
1441	 34647.7178437837 
1442	 34601.6394451543 
1443	 34560.3621223817 
1444	 34525.6517144181 
1445	 34489.5565997883 
1446	 34457.8728568692 
1447	 34420.7641379538 
1448	 34379.4564223678 
1449	 34338.9139309757 
1450	 34298.1981384793 
1451	 34257.9690455886 
1452	 34217.8214555632 
1453	 34176.9105731925 
1454	 34137.612904356 
1455	 34092.2004235143 
1456	 34044.5571231725 
1457	 33996.7705321508 
1458	 33943.7332688982 
1459	 33888.2515776075 
1460	 33832.3900153186 
1461	 33773.9814560028 
1462	 33711.8941213215 
1463	 33648.5513023103 
1464	 33582.7905935114 
1465	 33516.3098959383 
1466	 33451.162146519 
1467	 33386.892897686 
1468	 33326.1852050218 
1469	 33267.3437030464 
1470	 33209.0478107338 
1471	 33152.9165533894 
1472	 33097.2599810845 
1473	 33044.6527478991 
1474	 32996.1912612483 
1475	 32946.4222316868 
1476	 32897.6309374713 
1477	 32851.1333871839 
1478	 32807.1775481562 
1479	 32764.0610208377 
1480	 32720.4696900286 
1481	 32677.0856483104 
1482	 32630.3333275224 
1483	 32584.0470352694 
1484	 32538.0718449502 
1485	 32491.8950627985 
1486	 32447.7420154915 
1487	 32403.7275067794 
1488	 32364.3243549903 
1489	 32325.4564386764 
1490	 32285.7887371029 
1491	 32249.2852367846 
1492	 32208.2060214012 
1493	 32168.5422136836 
1494	 32130.7577970623 
1495	 32086.4007323556 
1496	 32046.6111224514 
1497	 32007.2718258758 
1498	 31962.973157152 
1499	 31922.9210008525 
1500	 31879.1418803322 
1501	 31832.8146584946 
1502	 31789.8038355577 
1503	 31747.895317461 
1504	 31709.2841070306 
1505	 31669.6079586649 
1506	 31628.5308255176 
1507	 31588.0132582336 
1508	 31547.860265497 
1509	 31509.5363534554 
1510	 31471.2664857421 
1511	 31431.3617726391 
1512	 31391.7136560609 
1513	 31351.0066449497 
1514	 31309.6196107302 
1515	 31269.6284768119 
1516	 31228.1924444733 
1517	 31185.0585523085 
1518	 31143.887065801 
1519	 31105.9848310195 
1520	 31066.000965312 
1521	 31025.500578216 
1522	 30982.0957952929 
1523	 30933.2088129326 
1524	 30888.2065641341 
1525	 30843.6695815355 
1526	 30797.8187465286 
1527	 30754.3190581203 
1528	 30708.3942684184 
1529	 30661.7552709088 
1530	 30617.105753776 
1531	 30571.3362000303 
1532	 30523.2453402548 
1533	 30474.4756550701 
1534	 30426.7735241247 
1535	 30379.3688097538 
1536	 30329.3742462612 
1537	 30279.1607906142 
1538	 30230.2930035867 
1539	 30178.2830056013 
1540	 30129.1732780912 
1541	 30080.7560185794 
1542	 30026.8427615499 
1543	 29975.371289097 
1544	 29923.1627010001 
1545	 29868.4789370655 
1546	 29816.0253488819 
1547	 29763.6588205371 
1548	 29712.2693385253 
1549	 29661.0205912402 
1550	 29606.9510479083 
1551	 29550.5505772965 
1552	 29492.6352557728 
1553	 29435.359885841 
1554	 29383.0227563986 
1555	 29331.5941993646 
1556	 29278.0211619142 
1557	 29222.6887667296 
1558	 29161.242336023 
1559	 29098.7821816048 
1560	 29036.3491237816 
1561	 28972.9655081948 
1562	 28911.1359723464 
1563	 28851.63761331 
1564	 28794.8267255949 
1565	 28735.6988158731 
1566	 28677.3834655259 
1567	 28619.1165840091 
1568	 28553.2341420255 
1569	 28487.1718537202 
1570	 28421.9771302982 
1571	 28351.9707218338 
1572	 28286.4512704818 
1573	 28222.9146221828 
1574	 28154.4122878504 
1575	 28087.5102611537 
1576	 28021.2995996787 
1577	 27952.8293539239 
1578	 27884.8361774162 
1579	 27817.4829741735 
1580	 27747.4411122315 
1581	 27675.4123982806 
1582	 27607.0374538173 
1583	 27541.398208003 
1584	 27475.8103499318 
1585	 27407.2659288628 
1586	 27333.240485902 
1587	 27258.2518799528 
1588	 27185.1534126722 
1589	 27114.9250655413 
1590	 27048.9508819355 
1591	 26981.2606993721 
1592	 26909.2065071411 
1593	 26836.4595787721 
1594	 26761.9332558475 
1595	 26687.2103429958 
1596	 26613.61529765 
1597	 26539.074005784 
1598	 26462.5669219017 
1599	 26388.3387373341 
1600	 26312.9078479792 
1601	 26235.0340445609 
1602	 26162.4320218906 
1603	 26087.6199147194 
1604	 26012.4885339236 
1605	 25938.6185683347 
1606	 25859.7040972885 
1607	 25780.6598715959 
1608	 25699.9094599884 
1609	 25617.5900431604 
1610	 25537.2456731504 
1611	 25455.5397225027 
1612	 25372.676323249 
1613	 25290.6752099954 
1614	 25207.0369178876 
1615	 25122.5455520855 
1616	 25039.2472065544 
1617	 24952.1290721287 
1618	 24864.186466631 
1619	 24774.9148555245 
1620	 24684.2659255903 
1621	 24596.5824412587 
1622	 24504.69033686 
1623	 24414.0187537125 
1624	 24323.7497069883 
1625	 24228.1821095607 
1626	 24133.682400363 
1627	 24039.3403629066 
1628	 23941.9783702718 
1629	 23845.9904218635 
1630	 23751.8028892538 
1631	 23656.1847798587 
1632	 23561.627933157 
1633	 23468.4638279854 
1634	 23380.6876759352 
1635	 23294.6373533617 
1636	 23214.4405808061 
1637	 23131.4071370568 
1638	 23047.3959482808 
1639	 22964.2155300221 
1640	 22880.9952353672 
1641	 22797.4252881369 
1642	 22715.9842218178 
1643	 22630.9594269941 
1644	 22544.1642834512 
1645	 22454.7476143866 
1646	 22364.6999616496 
1647	 22270.4095378671 
1648	 22171.8124688691 
1649	 22072.6444216636 
1650	 21969.4657271468 
1651	 21866.3031009317 
1652	 21764.7070694721 
1653	 21656.9334922503 
1654	 21548.6267559176 
1655	 21433.045560211 
1656	 21312.2555578197 
1657	 21185.1008025632 
1658	 21055.2792190572 
1659	 20911.8709393844 
1660	 20758.670528261 
1661	 20598.6275326007 
1662	 20426.5905090794 
1663	 20251.7883720308 
1664	 20069.7340771946 
1665	 19886.9661054255 
1666	 19695.7236244171 
1667	 19512.5919886698 
1668	 19327.0072733859 
1669	 19153.7699662687 
1670	 18985.3330709387 
1671	 18827.9854029871 
1672	 18678.2329070521 
1673	 18541.1336174619 
1674	 18414.3720019559 
1675	 18298.4262234831 
1676	 18195.2569667249 
1677	 18097.5970430196 
1678	 18010.1457816133 
1679	 17926.2396682132 
1680	 17848.2753974919 
1681	 17777.959569112 
1682	 17714.062199664 
1683	 17655.4716085808 
1684	 17605.6505532329 
1685	 17558.1964668284 
1686	 17514.1534177914 
1687	 17479.5036472202 
1688	 17443.7242660168 
1689	 17411.9812438575 
1690	 17379.9179508264 
1691	 17346.4582621503 
1692	 17314.7820124111 
1693	 17287.3401985424 
1694	 17255.8567262997 
1695	 17223.3812636963 
1696	 17189.4293453154 
1697	 17149.869286483 
1698	 17114.8008100421 
1699	 17079.693151642 
1700	 17048.4856423376 
1701	 17023.8184208639 
1702	 16994.8459761459 
1703	 16964.5286919222 
1704	 16937.0130489694 
1705	 16908.5583757997 
1706	 16881.5103989476 
1707	 16860.1184112893 
1708	 16833.1180315351 
1709	 16802.1315996802 
1710	 16772.9994796089 
1711	 16743.1352375021 
1712	 16712.7704169195 
1713	 16683.8968976453 
1714	 16651.7407780899 
1715	 16617.2469916887 
1716	 16582.0898819956 
1717	 16543.5367719649 
1718	 16509.7355235591 
1719	 16476.455455592 
1720	 16445.3214357018 
1721	 16417.6305777299 
1722	 16389.1334255268 
1723	 16359.7643448118 
1724	 16335.7158231703 
1725	 16315.5949499323 
1726	 16294.3015729621 
1727	 16269.943880849 
1728	 16242.1949589118 
1729	 16213.920031194 
1730	 16186.8629003569 
1731	 16160.4495970152 
1732	 16133.6367359319 
1733	 16109.8198549351 
1734	 16088.4913435248 
1735	 16068.0158901587 
1736	 16051.2059656286 
1737	 16032.3211564424 
1738	 16013.4401201565 
1739	 15993.842651316 
1740	 15971.0705894694 
1741	 15952.5506098299 
1742	 15936.0884967751 
1743	 15919.3395088332 
1744	 15905.1758361958 
1745	 15889.7399905439 
1746	 15872.0937705636 
1747	 15858.1647051407 
1748	 15847.1505136023 
1749	 15834.3850530918 
1750	 15823.0107122927 
1751	 15809.8603576999 
1752	 15792.5256051866 
1753	 15782.8793749964 
1754	 15778.4362222243 
1755	 15768.897530255 
1756	 9229.00484182806 
1757	 9350.87477731306 
1758	 9477.91700334297 
1759	 9598.21176295615 
1760	 9712.78910323682 
1761	 9835.94825948508 
1762	 9973.68402586237 
1763	 10101.1441043747 
1764	 10225.4739463493 
1765	 10360.1791629388 
1766	 10484.9177271418 
1767	 10594.1923482827 
1768	 10707.0441426661 
1769	 10817.3336225201 
1770	 10935.3143557033 
1771	 11057.6936658749 
1772	 11173.3437074139 
1773	 11292.6226063968 
1774	 11416.6944265638 
1775	 11547.4549208103 
1776	 11680.8604378778 
1777	 11813.638494055 
1778	 11961.5254177642 
1779	 12095.5420273252 
1780	 12214.566879619 
1781	 12335.1448617049 
1782	 12439.7896773318 
1783	 12556.199034621 
1784	 12681.9771072001 
1785	 12818.7081609835 
1786	 12937.0970098675 
1787	 13063.2782777266 
1788	 13193.3792494911 
1789	 13306.7263217689 
1790	 13429.5949894194 
1791	 13566.9069817843 
1792	 13693.9056418116 
1793	 13819.7359015181 
1794	 13946.3931584841 
1795	 14074.0741929337 
1796	 14191.0245592991 
1797	 14322.2024081673 
1798	 14456.9146362918 
1799	 14569.3312810304 
1800	 14685.650953747 
1801	 14802.8979272484 
1802	 14914.1539449465 
1803	 15020.3511415123 
1804	 15140.7279955885 
1805	 15232.5302971429 
1806	 15304.9311888883 
1807	 15369.1474380567 
1808	 15421.6173378334 
1809	 15484.8722180909 
1810	 15567.9461578866 
1811	 15630.9316236364 
1812	 15683.5847407109 
1813	 15733.8455728117 
1814	 15772.950969871 
1815	 15776.3651786043 
1816	 15808.9499586108 
1817	 15853.7446490723 
1818	 15892.9325144256 
1819	 15942.9278339425 
1820	 16001.4351667056 
1821	 16038.2319334471 
1822	 16060.4308620145 
1823	 16089.0387673606 
1824	 16107.311623056 
1825	 16130.4039614196 
1826	 16157.9100640479 
1827	 16183.9329475293 
1828	 16207.4240191998 
1829	 16234.6597649128 
1830	 16254.7358236236 
1831	 16271.4101055715 
1832	 16292.277632202 
1833	 16300.3587577595 
1834	 16329.8679425104 
1835	 16370.267834081 
1836	 16415.7592179879 
1837	 16472.9658937553 
1838	 16534.0459556054 
1839	 16603.9450390262 
1840	 16675.0635828433 
1841	 16745.2086948176 
1842	 16825.5481711894 
1843	 16888.3396176667 
1844	 16939.9434206988 
1845	 16996.8628906175 
1846	 17046.1790473576 
1847	 17102.4910550343 
1848	 17164.9910514329 
1849	 17223.9690299193 
1850	 17288.6866869428 
1851	 17344.6157268901 
1852	 17405.9581954926 
1853	 17479.4125972632 
1854	 17532.2036725004 
1855	 17583.5364562776 
1856	 17619.1757331 
1857	 17646.0585459751 
1858	 17650.9203451411 
1859	 17644.5292471213 
1860	 17628.2869362943 
1861	 17587.686478093 
1862	 17548.2502299079 
1863	 17514.6157683296 
1864	 17466.7523389753 
1865	 17442.6610151916 
1866	 17422.1176538013 
1867	 17424.0273572078 
1868	 17434.4283836696 
1869	 17477.256746212 
1870	 17541.0182098843 
1871	 17636.3523628681 
1872	 17750.5920302201 
1873	 17875.7838351776 
1874	 18004.7509885006 
1875	 18123.7499505481 
1876	 18231.0835024257 
1877	 18334.9860575442 
1878	 18416.5084420759 
1879	 18482.1122224638 
1880	 18534.6216526663 
1881	 18560.5045507664 
1882	 18579.1179652335 
1883	 18581.6427748842 
1884	 18555.9801019209 
1885	 18520.5095267755 
1886	 18490.6074405774 
1887	 18465.0116972363 
1888	 18442.709812106 
1889	 18421.5673468153 
1890	 18396.5055217197 
1891	 18344.2579380654 
1892	 18273.1776083542 
1893	 18194.1354149622 
1894	 18109.8149364321 
1895	 18030.0204363822 
1896	 17957.4708353151 
1897	 17897.5547338822 
1898	 17842.1514422413 
1899	 17804.4660692927 
1900	 17784.1583543231 
1901	 17766.5611764706 
1902	 17763.461345133 
1903	 17776.4750110549 
1904	 17784.7836639705 
1905	 17794.326234849 
1906	 17807.5962050149 
1907	 17813.6176327203 
1908	 17820.4583202919 
1909	 17831.4908960851 
1910	 17839.1947752403 
1911	 17842.1102050556 
1912	 17845.3983136764 
1913	 17847.7111964696 
1914	 17842.5802290518 
1915	 17853.1220417575 
1916	 17871.4537188062 
1917	 17893.5838744021 
1918	 17930.9649009063 
1919	 17961.4565234189 
1920	 17991.1744467193 
1921	 18018.4708104707 
1922	 18042.7573700581 
1923	 18073.1783471881 
1924	 18106.2530543503 
1925	 18139.1477289603 
1926	 18182.3639960824 
1927	 18218.017368372 
1928	 18237.8701616837 
1929	 18252.60997101 
1930	 18258.2357652176 
1931	 18242.4461502324 
1932	 18245.6233618915 
1933	 18252.8118446342 
1934	 18255.3058369369 
1935	 18263.7142025147 
1936	 18268.3037638513 
1937	 18262.5166623967 
1938	 18263.150628623 
1939	 18267.6848857324 
1940	 18277.0327595814 
1941	 18278.2174411283 
1942	 18286.3488658423 
1943	 18271.5080977502 
1944	 18235.9462067848 
1945	 18215.0803443951 
1946	 18183.2798436563 
1947	 18161.5380936399 
1948	 18157.3577991708 
1949	 18142.3445575011 
1950	 18123.9110596729 
1951	 18101.8515925415 
1952	 18079.371031219 
1953	 18048.5509242125 
1954	 18020.0851866512 
1955	 17988.8022606868 
1956	 17957.0016186782 
1957	 17923.0339992148 
1958	 17891.4204273235 
1959	 17861.4000519687 
1960	 17826.4799161667 
1961	 17797.3496416181 
1962	 17755.9744450159 
1963	 17705.5549110064 
1964	 17651.8216276601 
1965	 17590.571172671 
1966	 17524.4253701384 
1967	 17461.4941206141 
1968	 17395.7141494617 
1969	 17332.4571848638 
1970	 17270.8264452542 
1971	 17208.3495700173 
1972	 17150.0419723619 
1973	 17082.7550153254 
1974	 17006.9966289156 
1975	 16938.0428300638 
1976	 16872.1507481514 
1977	 16798.1817060394 
1978	 16722.6205708029 
1979	 16650.8448849453 
1980	 16570.0417152891 
1981	 16479.6309759494 
1982	 16387.9829188164 
1983	 16290.7001441141 
1984	 16200.6075171152 
1985	 16105.43678283 
1986	 16017.3436271726 
1987	 15938.787101299 
1988	 15856.5577513506 
1989	 15778.9568482365 
1990	 15691.6286526636 
1991	 15597.1520042812 
1992	 15511.949514027 
1993	 15404.3318870439 
1994	 15303.7846795457 
1995	 15204.8830533981 
1996	 15102.6109207203 
1997	 15006.7655563586 
1998	 14919.4041809173 
1999	 14823.5175571512 
2000	 14728.0072869009 
2001	 14633.3220462351 
2002	 14534.8459603996 
2003	 14438.5145791908 
2004	 14347.2844606658 
2005	 14244.417185627 
2006	 14155.9358174179 
2007	 14068.8382443833 
2008	 13984.0161489882 
2009	 13913.2749163909 
2010	 13823.7208599774 
2011	 13723.4109295043 
2012	 13626.1903360822 
2013	 13515.1850555726 
2014	 13418.1712006287 
2015	 13329.6870683693 
2016	 13238.119868433 
2017	 13154.1512305248 
2018	 13068.7034789944 
2019	 12981.519649158 
2020	 12893.5632347597 
2021	 12808.732976027 
2022	 12702.8995102623 
2023	 12605.4326809559 
2024	 12516.7446045697 
2025	 12432.1459843445 
2026	 12356.2463989084 
2027	 12285.385209391 
2028	 12222.4650857485 
2029	 12154.4911919282 
2030	 12094.7376107518 
2031	 12025.5465232952 
2032	 11952.8973643906 
2033	 11870.2728486262 
2034	 11790.2047193843 
2035	 11703.2981675701 
2036	 11621.5076798577 
2037	 11551.5089319632 
2038	 11479.4742214463 
2039	 11430.6781431459 
2040	 11381.6433919924 
2041	 11316.1456200358 
2042	 11256.8637749117 
2043	 11197.0642368993 
2044	 11134.9954006102 
2045	 11069.5955409796 
2046	 11015.5905180941 
2047	 10969.218078971 
2048	 10919.420794067 
2049	 10873.1508126048 
2050	 10823.909763245 
2051	 10780.7494913107 
2052	 10729.4289048103 
2053	 10692.6525380519 
2054	 10658.4021519784 
2055	 10606.9451228148 
2056	 10562.4866466528 
2057	 10511.8334379581 
2058	 10458.6665790639 
2059	 10409.8147047318 
2060	 10364.1518424682 
2061	 10320.1986058286 
2062	 10275.9755161749 
2063	 10234.2012229342 
2064	 10199.7315100443 
2065	 10159.1764691798 
2066	 10112.8378321424 
2067	 10069.0078399345 
2068	 10016.7580217034 
2069	 9965.05476998531 
2070	 9915.65654971931 
2071	 9860.54608069172 
2072	 9803.08104534044 
2073	 9744.0714983683 
2074	 9688.58471756666 
2075	 9646.46375654932 
2076	 9599.37558568082 
2077	 9557.16752566664 
2078	 9511.26552014702 
2079	 9459.16400959453 
2080	 9412.75266889161 
2081	 9368.3553279817 
2082	 9330.03711816416 
2083	 9285.67442289923 
2084	 9238.20674647751 
2085	 9192.10805667331 
2086	 9139.24590998845 
2087	 9093.87340728303 
2088	 9046.72782746179 
2089	 8994.66218837901 
2090	 8941.55750705001 
2091	 8888.94941095688 
2092	 8837.63304329663 
2093	 8791.58708681768 
2094	 8749.7824064757 
2095	 8701.75164093998 
2096	 8656.85628040039 
2097	 8603.85474546778 
2098	 8543.01896961137 
2099	 8478.13345390102 
2100	 8420.58707759325 
2101	 8359.19895734819 
2102	 8303.90952430786 
2103	 8249.07798091496 
2104	 8184.40964551411 
2105	 8115.88956297304 
2106	 8041.56579647927 
2107	 7973.37834513096 
2108	 7905.10408067912 
2109	 7842.64255525799 
2110	 7790.60850999805 
2111	 7740.31600361236 
2112	 7695.8027356384 
2113	 7652.72423885665 
2114	 7596.32600299232 
2115	 7524.12581732966 
2116	 7455.59323627899 
2117	 7378.16317684531 
2118	 7310.8652763286 
2119	 7247.14567386067 
2120	 7188.6404936993 
2121	 7132.7940624657 
2122	 7070.5071451879 
2123	 7011.52048555064 
2124	 6968.96847215009 
2125	 6927.82748843089 
2126	 6897.65321875643 
2127	 6868.58397938607 
2128	 6837.37052814362 
2129	 6805.9805593342 
2130	 6757.49549370749 
2131	 6709.97056032573 
2132	 6674.38825215584 
2133	 6633.26943823671 
2134	 6601.65824542448 
2135	 6567.7175521362 
2136	 6526.22733424529 
2137	 6489.83950346089 
2138	 6458.4393557388 
2139	 6427.66124390193 
2140	 6399.56894871479 
2141	 6376.1493076205 
2142	 6343.92584232852 
2143	 6321.44683022725 
2144	 6309.91515764091 
2145	 6307.95780864338 
2146	 6314.68302382558 
2147	 6325.77306874719 
2148	 6326.30066847409 
2149	 6321.30769433707 
2150	 6329.7294857653 
2151	 6334.51533836475 
2152	 6358.65427284307 
2153	 6397.83896655172 
2154	 6428.68079554812 
2155	 6474.36047771791 
2156	 6507.67674070185 
2157	 6541.84750987123 
2158	 6582.04620152862 
2159	 6620.06370023541 
2160	 6667.12319385793 
2161	 6733.00592685309 
2162	 6778.9180291456 
2163	 6821.58854922256 
2164	 6867.94723581948 
2165	 6891.44981461893 
2166	 6914.22791279569 
2167	 6947.83378557028 
2168	 6972.74677688617 
2169	 6986.99094341427 
2170	 6990.78330007555 
2171	 6989.98327152519 
2172	 6994.38110607134 
2173	 7004.41572210902 
2174	 7028.96225372934 
2175	 7051.70117760687 
2176	 7070.01391226694 
2177	 7103.50467248087 
2178	 7134.29653346741 
2179	 7164.97608967254 
2180	 7196.24318686798 
2181	 7214.54073566166 
2182	 7236.81510182746 
2183	 7256.20720223579 
2184	 7271.54959501237 
2185	 7287.57089335642 
2186	 7309.33126763671 
2187	 7315.75431061084 
2188	 7316.88957026948 
2189	 7309.08153227834 
2190	 7290.51650761357 
2191	 7258.25091032655 
2192	 7231.54269944215 
2193	 7209.97555585414 
2194	 7181.48522044445 
2195	 7161.98128311673 
2196	 7141.08108666852 
2197	 7111.82836016696 
2198	 7082.90240130185 
2199	 7058.47892396657 
2200	 7030.35529063653 
2201	 7010.36162606749 
2202	 7002.15885862564 
2203	 6988.69112039078 
2204	 6975.52588470107 
2205	 6964.50961653676 
2206	 6955.49409211205 
2207	 6947.64484581859 
2208	 6944.68475205741 
2209	 6945.16943641518 
2210	 6938.39972197401 
2211	 6928.31864946515 
2212	 6917.0882883881 
2213	 6899.13275978015 
2214	 6880.99574501553 
2215	 6861.721897214 
2216	 6840.09880970199 
2217	 6819.82102400095 
2218	 6796.51235539554 
2219	 6771.61829411211 
2220	 6741.87302576177 
2221	 6705.35781812806 
2222	 6660.41129164338 
2223	 6610.56843322809 
2224	 6566.52365474724 
2225	 6522.51232867671 
2226	 6482.75011462141 
2227	 6442.03734980487 
2228	 6396.17493797126 
2229	 6362.03945163981 
2230	 6323.73060000227 
2231	 6284.29983732899 
2232	 6238.78099747093 
2233	 6183.56250617719 
2234	 6134.57153867594 
2235	 6083.59605948804 
2236	 6039.72570922032 
2237	 5995.71077637739 
2238	 5945.7589752238 
2239	 5907.73053157354 
2240	 5870.2423936366 
2241	 5837.15463930178 
2242	 5803.88319980888 
2243	 5769.26721757216 
2244	 5734.0713301052 
2245	 5701.86097651538 
2246	 5670.17885657758 
2247	 5638.22204849933 
2248	 5605.66128791728 
2249	 5571.69953269708 
2250	 5536.36980040885 
2251	 5504.87751710406 
2252	 5473.02759968524 
2253	 5444.91398575631 
2254	 5420.42232685709 
2255	 5398.1465098957 
2256	 5379.59026582452 
2257	 5361.40996164163 
2258	 5343.44271632015 
2259	 5319.28445359959 
2260	 5279.25268120393 
2261	 5241.26568030652 
2262	 5207.20258564891 
2263	 5169.94243200825 
2264	 5145.46249377974 
2265	 5125.99709069554 
2266	 5101.44325947794 
2267	 5072.04048032704 
2268	 5037.6493541602 
2269	 4999.84064535567 
2270	 4961.29128420544 
2271	 4919.05026587772 
2272	 4882.93656525699 
2273	 4848.191689968 
2274	 4805.37966968165 
2275	 4768.39650956974 
2276	 4723.04112957252 
2277	 4677.75552385036 
2278	 4647.00703378708 
2279	 4612.26771413663 
2280	 4576.72529568045 
2281	 4544.09510238798 
2282	 4511.48273047647 
2283	 4475.36216540469 
2284	 4453.63637398295 
2285	 4433.60951172247 
2286	 4401.36667382802 
2287	 4362.64457415711 
2288	 4328.2958040826 
2289	 4285.68986892762 
2290	 4250.62445766298 
2291	 4220.54182650082 
2292	 4189.67442937268 
2293	 4156.15881195079 
2294	 4126.71334921674 
2295	 4104.24873302663 
2296	 4080.83378458955 
2297	 4056.28291248467 
2298	 4034.93063758982 
2299	 4018.61398356442 
2300	 3992.44861339 
2301	 3964.59441193207 
2302	 3938.10436692392 
2303	 3903.5229327472 
2304	 3876.13694008554 
2305	 3856.58674547648 
2306	 3833.36518234893 
2307	 3806.211127526 
2308	 3783.83245556693 
2309	 3765.58936139812 
2310	 3742.00175237817 
2311	 3721.00780451007 
2312	 3708.4232310927 
2313	 3681.37135654931 
2314	 3646.16360450488 
2315	 3611.8784183248 
2316	 3574.72776710026 
2317	 3540.29479393922 
2318	 3514.4791553176 
2319	 3490.39002190364 
2320	 3464.4006894903 
2321	 3445.25943166461 
2322	 3424.38941422116 
2323	 3394.52036088217 
2324	 3353.42866723445 
2325	 3311.44175416964 
2326	 3273.8475503423 
2327	 3236.54256499033 
2328	 3205.00500372031 
2329	 3173.11902841019 
2330	 3135.19202345819 
2331	 3097.97092487963 
2332	 3067.12356632742 
2333	 3036.15972878941 
2334	 3007.65056814167 
2335	 2988.03281365225 
2336	 2965.12249077189 
2337	 2931.34902869076 
2338	 2891.07029805507 
2339	 2840.2974580956 
2340	 2791.50256878042 
2341	 2755.38228203824 
2342	 2728.13907372577 
2343	 2711.53545858898 
2344	 2694.22081891932 
2345	 2683.07527093308 
2346	 2668.85240266085 
2347	 2647.42300443121 
2348	 2637.68874714298 
2349	 2619.37116539983 
2350	 2594.59303022602 
2351	 2576.5044455868 
2352	 2549.60088287424 
2353	 2512.91841737248 
2354	 2484.16947700176 
2355	 2453.52853889073 
2356	 2414.54652926269 
2357	 2396.27837118109 
2358	 2377.54050827922 
2359	 2347.07758027023 
2360	 2328.37887816634 
2361	 2299.93590385982 
2362	 2268.97108248589 
2363	 2249.14545529313 
2364	 2224.73740902283 
2365	 2199.9975056663 
2366	 2172.88878156233 
2367	 2148.51450560407 
2368	 2129.49439801039 
2369	 2113.48033028917 
2370	 2108.83607682622 
2371	 2097.47138001721 
2372	 2083.8132412525 
2373	 2070.14010357583 
2374	 2044.70372005455 
2375	 2028.31733785618 
2376	 2014.06864208126 
2377	 1986.22120955174 
2378	 1957.31090568488 
2379	 1925.88057921176 
2380	 1887.561896545 
2381	 1864.86006558902 
2382	 1853.84658509809 
2383	 1839.61963980224 
2384	 1833.30746412156 
2385	 1810.46014721879 
2386	 1776.74787905344 
2387	 1753.28285835275 
2388	 1722.85730849931 
2389	 1704.45691811888 
2390	 1693.84494430644 
2391	 1678.682194089 
2392	 1667.06352025675 
2393	 1653.44754799609 
2394	 1643.34367806625 
2395	 1635.6422045389 
2396	 1626.97901097914 
2397	 1621.44478574325 
2398	 1607.9147855819 
2399	 1593.02898524431 
2400	 1583.19324881412 
2401	 1563.81742223505 
2402	 1553.67410780277 
2403	 1541.23054361078 
2404	 1516.23528114446 
2405	 1504.0004128959 
2406	 1486.78844462605 
2407	 1467.62351037841 
2408	 1454.90840119203 
2409	 1432.30985454288 
2410	 1416.41323709544 
2411	 1406.71003455885 
2412	 1393.52559259684 
2413	 1382.41656852083 
2414	 1368.39963616895 
2415	 1353.18471069586 
2416	 1330.2559419972 
2417	 1311.87137979928 
2418	 1301.21634709283 
2419	 1286.20538620026 
2420	 1284.62082729691 
2421	 1285.99485980921 
2422	 1275.58304372761 
2423	 1259.80306090356 
2424	 1241.4580438896 
2425	 1229.65559824696 
2426	 1218.8054870071 
2427	 1209.14131301915 
2428	 1204.88256768907 
2429	 1187.17801612571 
2430	 1169.74074330932 
2431	 1154.10201730079 
2432	 1136.59319139387 
2433	 1129.17396846722 
2434	 1116.2130605015 
2435	 1099.20313656186 
2436	 1088.26125219233 
2437	 1070.5352511996 
2438	 1046.91349752673 
2439	 1036.33601197249 
2440	 1024.85936512817 
2441	 1018.11580422237 
2442	 1023.26491614934 
2443	 1024.52747044578 
2444	 1018.91674332446 
2445	 1006.99027895139 
2446	 989.541976395212 
2447	 971.826305338892 
2448	 965.463016655429 
2449	 961.502417094429 
2450	 958.842732510215 
2451	 954.655061315858 
2452	 942.070637288544 
2453	 930.333617709537 
2454	 916.438117029958 
2455	 914.469946132019 
2456	 921.605447679832 
2457	 912.948419363863 
2458	 902.357175829908 
2459	 881.056285458495 
2460	 850.041079970145 
2461	 828.133387586504 
2462	 809.992483015999 
2463	 801.978539070257 
2464	 803.962069519215 
2465	 814.002138106789 
2466	 817.231699357576 
2467	 814.721755513086 
2468	 807.705429097081 
2469	 794.839316429295 
2470	 769.139023626324 
2471	 753.740086768421 
2472	 730.138214817727 
2473	 716.946684727422 
2474	 711.979755071977 
2475	 705.080734167974 
2476	 708.785210829795 
2477	 696.936981267235 
2478	 684.214864300613 
2479	 680.263011453194 
2480	 663.880555676714 
2481	 658.166763342843 
2482	 655.46369882192 
2483	 643.328658849309 
2484	 632.260902885303 
2485	 622.196793133734 
2486	 610.99117664733 
2487	 599.446219091152 
2488	 602.611740020856 
2489	 604.216246832208 
2490	 602.352286795082 
2491	 608.912596475235 
2492	 599.936298535516 
2493	 583.595597496161 
2494	 570.326681221331 
2495	 542.773866381839 
2496	 525.544352252409 
2497	 517.600840373506 
2498	 502.033103246291 
2499	 496.684439565324 
2500	 484.81017138612 
