Wavelength	1mm_WhitePLA00000.asd
350	 0.390369304516462 
351	 1.29692370568651 
352	 2.26790693035351 
353	 0.743813714086101 
354	 0.99210871598204 
355	 1.6133983228336 
356	 1.16735491022891 
357	 1.02024160777319 
358	 0.768528359892424 
359	 0.407250446890448 
360	 0.247186936728872 
361	 0.346252954444793 
362	 2.68625669325917E-02 
363	-0.821374280436154 
364	 0.924262426533385 
365	 2.34504359162058 
366	 2.11239514431781 
367	 0.9672526768782 
368	 1.1310962236086 
369	 1.52870100299017 
370	 0.495521435112546 
371	 0.980549603405075 
372	 1.16834888138386 
373	 0.52606116929549 
374	 1.89176518912645 
375	 2.83935984804476 
376	 2.42369033684042 
377	 0.629571216971889 
378	 0.549674258386434 
379	 0.911967360749465 
380	 0.422158214171442 
381	-0.416387529193349 
382	 0.84841146705914 
383	 2.59440461177444 
384	-0.271945090738588 
385	-0.145523340636947 
386	 1.26511723679495 
387	 0.799537676991121 
388	 0.344305967515402 
389	 1.42069906547498 
390	 3.18016536324934 
391	 0.912565139030754 
392	 8.67666890680697E-02 
393	 0.735649428029801 
394	 0.865415146906028 
395	 1.59885728798078 
396	 1.08861511394032 
397	-0.690419702524494 
398	 2.1139098132699 
399	 3.60225448105985 
400	 3.01560064184433 
401	 3.395776131995 
402	 3.60126113348665 
403	 4.1163421801437 
404	 5.28068377753993 
405	 5.22459765333273 
406	 5.25236615158718 
407	 6.576163864399 
408	 10.3679963714281 
409	 13.3871200287264 
410	 16.3870046335375 
411	 21.6937091095209 
412	 28.5694670363048 
413	 35.4836997573633 
414	 42.0240595889816 
415	 51.2107396877763 
416	 61.1299693507842 
417	 71.3777794651583 
418	 82.8047515197703 
419	 93.2924760204856 
420	 103.738574548598 
421	 115.213379929531 
422	 124.718560003514 
423	 133.581829817142 
424	 142.560638540262 
425	 150.748267417403 
426	 159.207821932279 
427	 167.778082929672 
428	 175.751928692955 
429	 185.154547776851 
430	 193.098354076834 
431	 197.460994330937 
432	 202.090561200692 
433	 206.619414940952 
434	 210.997865953722 
435	 215.688805606182 
436	 220.549549073073 
437	 224.940369689404 
438	 228.25612164794 
439	 232.393516276617 
440	 235.978927135142 
441	 238.278762564362 
442	 241.36709235553 
443	 244.505192000604 
444	 247.198679357198 
445	 249.092907738813 
446	 253.305892122574 
447	 257.592593213849 
448	 259.348710283538 
449	 264.943490094172 
450	 269.563260656571 
451	 270.929831695743 
452	 273.638604840187 
453	 278.433740378689 
454	 283.774581769565 
455	 286.35901260443 
456	 289.25339870574 
457	 293.08757069162 
458	 297.780408438984 
459	 302.847565086544 
460	 307.281640374188 
461	 310.969296954028 
462	 315.385082834035 
463	 319.910575266248 
464	 324.547483701144 
465	 329.550545116925 
466	 335.004352917559 
467	 339.981205288054 
468	 344.202047987418 
469	 350.94895149532 
470	 357.254393192652 
471	 362.218395921467 
472	 368.222986238278 
473	 374.943476798262 
474	 382.204467602575 
475	 389.810618787742 
476	 398.42647234867 
477	 406.66094408521 
478	 413.636373627253 
479	 421.404971496974 
480	 430.203243931359 
481	 439.449941582135 
482	 447.264773303456 
483	 456.878784424499 
484	 467.941197067812 
485	 478.530379254213 
486	 487.898085573851 
487	 498.228350192415 
488	 510.676073604894 
489	 521.062701631011 
490	 532.55393665509 
491	 546.107664766504 
492	 559.986301166557 
493	 572.304825209969 
494	 584.014372270117 
495	 597.28340436964 
496	 611.194068745247 
497	 626.072934671421 
498	 641.947536348957 
499	 657.542002845798 
500	 672.251050335086 
501	 686.633853403977 
502	 702.854205492926 
503	 718.8886502421 
504	 735.204393060693 
505	 753.046836411889 
506	 770.769700131129 
507	 787.066801378041 
508	 802.097247061152 
509	 820.507892479996 
510	 840.442391502527 
511	 860.469600296711 
512	 879.683070659726 
513	 898.137423888243 
514	 916.788218485863 
515	 937.016031402772 
516	 958.701803609237 
517	 980.519558435344 
518	 1001.34090691592 
519	 1021.15194437038 
520	 1042.6925025185 
521	 1066.42601518363 
522	 1089.75354712836 
523	 1111.31479851317 
524	 1132.36869218243 
525	 1155.54816572299 
526	 1180.05147853706 
527	 1204.77078252202 
528	 1228.68784940163 
529	 1251.43536787352 
530	 1274.23240062948 
531	 1297.73070511824 
532	 1321.81752620116 
533	 1345.39898018355 
534	 1368.38920773179 
535	 1391.34930939408 
536	 1416.22030577577 
537	 1439.98804575246 
538	 1460.34229859967 
539	 1482.78302204423 
540	 1506.52893804074 
541	 1530.37459197134 
542	 1552.7759750992 
543	 1574.44409823224 
544	 1596.01879705724 
545	 1618.2174129108 
546	 1640.42701733333 
547	 1662.19312661344 
548	 1683.2655720342 
549	 1704.22458915573 
550	 1725.4750148599 
551	 1746.67273055056 
552	 1765.74216635208 
553	 1784.73250436825 
554	 1804.75664792216 
555	 1826.35922738931 
556	 1845.91868873653 
557	 1863.19938922163 
558	 1879.28927461584 
559	 1896.3351667364 
560	 1913.47091594714 
561	 1929.55651056538 
562	 1943.4874169467 
563	 1956.36879377771 
564	 1967.67668341054 
565	 1975.28475880754 
566	 1982.78248729236 
567	 1989.81869981732 
568	 1994.72588011055 
569	 1997.19455261451 
570	 1997.85075536475 
571	 1997.51511185886 
572	 1997.34163258589 
573	 1995.24766251631 
574	 1991.32081412214 
575	 1988.453735297 
576	 1982.06813145857 
577	 1973.66877987155 
578	 1966.86381392341 
579	 1957.28624722934 
580	 1946.2989561711 
581	 1935.73391068801 
582	 1925.19079888234 
583	 1917.23887533939 
584	 1911.28089151098 
585	 1901.4882652039 
586	 1892.30517696538 
587	 1883.6575249057 
588	 1873.55031095636 
589	 1864.94961325094 
590	 1858.19457791582 
591	 1853.15339736329 
592	 1850.549677888 
593	 1848.96360325959 
594	 1847.74854009643 
595	 1847.4405214994 
596	 1850.91316113682 
597	 1858.44179910285 
598	 1868.42847693051 
599	 1880.36426568395 
600	 1892.93806028129 
601	 1905.08396847673 
602	 1918.29359243984 
603	 1931.35462543511 
604	 1943.62467480238 
605	 1955.93105525408 
606	 1970.33085513126 
607	 1987.57349847922 
608	 2007.17605040489 
609	 2032.01970664706 
610	 2061.33065425815 
611	 2092.72109156436 
612	 2123.34682147748 
613	 2153.16986753112 
614	 2181.8938024543 
615	 2206.51779100963 
616	 2231.13505478186 
617	 2256.62450008154 
618	 2279.85649000296 
619	 2304.0352115035 
620	 2330.36866963647 
621	 2359.00190529485 
622	 2387.10505928558 
623	 2413.57841937839 
624	 2439.01398025903 
625	 2469.29605548586 
626	 2498.17324226005 
627	 2523.44900158954 
628	 2549.63610872546 
629	 2576.15024309287 
630	 2601.48600359431 
631	 2623.42359405103 
632	 2645.22447855132 
633	 2665.73856645024 
634	 2683.80298158959 
635	 2703.1181393939 
636	 2723.18972122577 
637	 2742.73049120666 
638	 2758.91475895093 
639	 2775.86059785165 
640	 2793.98320389803 
641	 2811.13020629039 
642	 2831.00185535505 
643	 2851.8168779894 
644	 2870.86476705251 
645	 2890.60566719085 
646	 2911.24296783115 
647	 2932.70291305508 
648	 2954.95344808729 
649	 2976.78851747644 
650	 2998.60571211077 
651	 3022.49643458928 
652	 3045.4004834612 
653	 3068.57359708473 
654	 3094.46079515476 
655	 3121.44310281161 
656	 3146.85802908592 
657	 3170.14191049459 
658	 3197.66166082885 
659	 3225.49219058764 
660	 3252.58396142409 
661	 3281.6273892038 
662	 3309.83787697099 
663	 3337.8364382822 
664	 3367.50267504284 
665	 3396.32075899155 
666	 3425.5525812138 
667	 3456.47435541868 
668	 3487.80420167395 
669	 3519.68248405248 
670	 3552.17679141805 
671	 3585.01753523265 
672	 3619.67925122662 
673	 3655.95652942089 
674	 3692.66441506983 
675	 3729.55982594728 
676	 3766.11783593671 
677	 3802.43952822 
678	 3841.67800863822 
679	 3881.23826056889 
680	 3919.92979520028 
681	 3959.95502579516 
682	 3999.13461436234 
683	 4038.18208104414 
684	 4079.74847964891 
685	 4122.60309175342 
686	 4165.86187404554 
687	 4208.57392816762 
688	 4249.07964041537 
689	 4290.67869340738 
690	 4334.87994815781 
691	 4378.63854715419 
692	 4420.91849225462 
693	 4462.49828477549 
694	 4505.91083136143 
695	 4546.79761840471 
696	 4586.92473476994 
697	 4629.08294673111 
698	 4668.57454025534 
699	 4707.39917663603 
700	 4746.72857325783 
701	 4783.53767708344 
702	 4820.51581116924 
703	 4857.30781652426 
704	 4890.46374187529 
705	 4924.21233843411 
706	 4957.67799914491 
707	 4988.62867382032 
708	 5019.59850522164 
709	 5049.9721226782 
710	 5078.85519089713 
711	 5105.66491260038 
712	 5130.92969227835 
713	 5155.83282267801 
714	 5182.63347430936 
715	 5206.1526212652 
716	 5227.74882662027 
717	 5251.02876541213 
718	 5273.65490423639 
719	 5295.92845027944 
720	 5317.89825989232 
721	 5337.74114848327 
722	 5355.68909176836 
723	 5372.85638176188 
724	 5391.60710475585 
725	 5410.34041875709 
726	 5429.63705758892 
727	 5450.536476997 
728	 5469.36954875646 
729	 5487.70994917241 
730	 5506.90890905524 
731	 5524.03868343962 
732	 5543.73566729519 
733	 5566.33934183251 
734	 5586.38683540281 
735	 5606.11481209048 
736	 5626.03021211741 
737	 5645.82964998827 
738	 5661.94959311557 
739	 5676.62337619867 
740	 5692.04770494141 
741	 5706.58321723649 
742	 5721.33146313106 
743	 5736.22954483229 
744	 5749.56560099814 
745	 5762.69413069548 
746	 5774.25050294047 
747	 5782.26186136751 
748	 5792.07830353213 
749	 5802.79866157935 
750	 5812.53662971783 
751	 5819.76072805555 
752	 5826.59627742952 
753	 5833.46261250242 
754	 5838.50367348991 
755	 5843.19837956488 
756	 5846.84982625057 
757	 5847.931688191 
758	 5846.6786509121 
759	 5841.2000554024 
760	 5833.00510684719 
761	 5835.63469290416 
762	 5839.0549658269 
763	 5839.57003077132 
764	 5840.84821426658 
765	 5842.10525648983 
766	 5841.61456477237 
767	 5837.57176754593 
768	 5832.49610370488 
769	 5827.05440167335 
770	 5821.49762178739 
771	 5815.68019345672 
772	 5810.11366886987 
773	 5804.19447607825 
774	 5796.10115477247 
775	 5787.10158334091 
776	 5778.25075333059 
777	 5770.14414665081 
778	 5760.02717902983 
779	 5749.65906724964 
780	 5739.37325110335 
781	 5724.2871394916 
782	 5709.6987323193 
783	 5696.59706914668 
784	 5682.52857464132 
785	 5668.16733529748 
786	 5653.21181212793 
787	 5637.25491609937 
788	 5620.51656750641 
789	 5603.10085043283 
790	 5585.70615473793 
791	 5570.77069194848 
792	 5554.08853002151 
793	 5534.54441647646 
794	 5513.01135800018 
795	 5491.5988866816 
796	 5470.7339597522 
797	 5450.39574822312 
798	 5430.97814478037 
799	 5410.88833679405 
800	 5389.58049519165 
801	 5368.05557141621 
802	 5347.49736601137 
803	 5327.40170543228 
804	 5306.54927356637 
805	 5286.82926023469 
806	 5266.68429959503 
807	 5244.54601480992 
808	 5220.23239445169 
809	 5196.27667216583 
810	 5173.04764955159 
811	 5148.50790425327 
812	 5125.90427672756 
813	 5103.68008591555 
814	 5079.32225429586 
815	 5055.98399689811 
816	 5031.94533940296 
817	 5006.86354182722 
818	 4984.91405973628 
819	 4961.02510176512 
820	 4935.27319205284 
821	 4910.94406870764 
822	 4882.09882940754 
823	 4853.19650138732 
824	 4828.8416768256 
825	 4803.77863719191 
826	 4779.55513543869 
827	 4756.66972003255 
828	 4734.06622830666 
829	 4708.42187758323 
830	 4680.24443013865 
831	 4651.35430108625 
832	 4617.93380277709 
833	 4583.38626678351 
834	 4551.15111091719 
835	 4522.52222868144 
836	 4495.4602557295 
837	 4470.47280370995 
838	 4450.09473660445 
839	 4434.27343513278 
840	 4419.80947956087 
841	 4403.11870173184 
842	 4383.56293313602 
843	 4360.6583108992 
844	 4335.62046217906 
845	 4312.31951614318 
846	 4288.27841386034 
847	 4263.28663512269 
848	 4237.96980932927 
849	 4212.66622187511 
850	 4187.16334332936 
851	 4161.32142200194 
852	 4135.25261681309 
853	 4110.15476402502 
854	 4085.66467353158 
855	 4060.29338957836 
856	 4036.20742249465 
857	 4012.14035264855 
858	 3986.47661830732 
859	 3959.20709971422 
860	 3932.98242067838 
861	 3908.19480721517 
862	 3882.20473143895 
863	 3858.78441350909 
864	 3835.35931249512 
865	 3808.29893272704 
866	 3783.17168524373 
867	 3757.61849315094 
868	 3730.8027154473 
869	 3706.46259032907 
870	 3682.00741479429 
871	 3657.76279264208 
872	 3635.14841803689 
873	 3610.8878459313 
874	 3585.54667866791 
875	 3559.90252729097 
876	 3533.47136567603 
877	 3505.66203498535 
878	 3478.29825118233 
879	 3454.97109422076 
880	 3428.43661197095 
881	 3400.8751196675 
882	 3375.29299313774 
883	 3348.59567542935 
884	 3321.83640946103 
885	 3294.99356632713 
886	 3266.68387563646 
887	 3237.18097155339 
888	 3207.17284882901 
889	 3177.62136790055 
890	 3149.77212175396 
891	 3122.73990706162 
892	 3095.74555056758 
893	 3068.25358599702 
894	 3042.42158489853 
895	 3017.48818636792 
896	 2991.99624364684 
897	 2968.95141573774 
898	 2946.74307896035 
899	 2924.3730246556 
900	 2902.66033541012 
901	 2884.2374588459 
902	 2867.55610891255 
903	 2849.40042959417 
904	 2833.6139304314 
905	 2819.54887384446 
906	 2805.3242980472 
907	 2787.38117836232 
908	 2769.10074574882 
909	 2750.37796215705 
910	 2729.39060471743 
911	 2709.21358505731 
912	 2689.03449318501 
913	 2667.94309954264 
914	 2646.54028734727 
915	 2624.63384731734 
916	 2602.91803278451 
917	 2582.54892867125 
918	 2561.89345060154 
919	 2540.61262953982 
920	 2518.71320874509 
921	 2496.53394082696 
922	 2472.79626893385 
923	 2449.15451834249 
924	 2429.16667066279 
925	 2409.08602467431 
926	 2387.86391137231 
927	 2365.54229895595 
928	 2343.8398211416 
929	 2321.11281300278 
930	 2297.21983476635 
931	 2273.1097878925 
932	 2247.85534282916 
933	 2223.2640153861 
934	 2200.52534812686 
935	 2177.57731956266 
936	 2155.03104255588 
937	 2133.16193072905 
938	 2111.94640655857 
939	 2090.2874550351 
940	 2067.75723598009 
941	 2044.63138514231 
942	 2022.7316773704 
943	 2000.31491819417 
944	 1977.75895688153 
945	 1956.685232234 
946	 1936.00370263802 
947	 1915.64008071464 
948	 1895.31656155039 
949	 1873.85552978423 
950	 1851.80600496341 
951	 1830.08023598161 
952	 1809.68943304128 
953	 1789.99163092926 
954	 1770.35861252855 
955	 1750.10502989899 
956	 1728.04326096894 
957	 1707.87562109676 
958	 1688.49845047182 
959	 1667.12646508157 
960	 1645.67745056586 
961	 1626.12000004184 
962	 1607.58061439431 
963	 1584.42262888807 
964	 1562.82791916609 
965	 1542.78460022503 
966	 2486.47126671191 
967	 2513.73567163855 
968	 2545.8778757443 
969	 2581.57104612986 
970	 2624.0600180725 
971	 2665.26992929841 
972	 2709.22352498404 
973	 2751.24212817391 
974	 2793.90364497577 
975	 2838.03497346623 
976	 2882.52608405521 
977	 2927.16752236681 
978	 2971.80844353178 
979	 3014.26854364456 
980	 3050.43485042472 
981	 3087.53506417033 
982	 3126.03999406784 
983	 3161.54567205036 
984	 3197.16185281293 
985	 3232.46291853169 
986	 3262.94026286798 
987	 3288.80006866385 
988	 3314.80599266713 
989	 3336.22317855022 
990	 3360.87362046973 
991	 3386.91510324485 
992	 3411.83869640831 
993	 3436.8274280274 
994	 3462.24508137027 
995	 3485.47425268048 
996	 3512.236478727 
997	 3540.9772241004 
998	 3566.75088373089 
999	 3596.81846944489 
1000	 3624.08375997772 
1001	 3647.18495521036 
1002	 3672.78496452497 
1003	 3697.4509883603 
1004	 3722.99503608382 
1005	 3747.61983804579 
1006	 3773.69285353419 
1007	 3799.01104171814 
1008	 3822.94812616968 
1009	 3844.87632883961 
1010	 3873.56169891012 
1011	 3901.26022294986 
1012	 3927.10279591736 
1013	 3955.66281662734 
1014	 3983.22318050815 
1015	 4009.93088311344 
1016	 4032.84254886598 
1017	 4055.22120738816 
1018	 4080.49854718635 
1019	 4104.62387746149 
1020	 4130.44281280792 
1021	 4157.20829073665 
1022	 4182.6523225026 
1023	 4209.22000228333 
1024	 4235.58942828081 
1025	 4263.47432045554 
1026	 4290.40950916332 
1027	 4315.12077830879 
1028	 4338.09938088167 
1029	 4359.88181470018 
1030	 4386.74603235584 
1031	 4415.43509582946 
1032	 4441.68758870206 
1033	 4471.05490675729 
1034	 4497.16613521357 
1035	 4518.93345465951 
1036	 4540.2086388394 
1037	 4561.61178883015 
1038	 4585.59922466908 
1039	 4612.21052992806 
1040	 4637.67149584309 
1041	 4663.45443632977 
1042	 4689.99170308872 
1043	 4716.96691222242 
1044	 4742.78419363211 
1045	 4769.89864525426 
1046	 4796.45016112919 
1047	 4817.52716053665 
1048	 4839.09129825142 
1049	 4860.93964637069 
1050	 4883.87235300318 
1051	 4908.73528407802 
1052	 4932.29427168811 
1053	 4951.34400123741 
1054	 4968.15788251295 
1055	 4988.28823106059 
1056	 5008.36823266417 
1057	 5028.74258158268 
1058	 5052.44841357552 
1059	 5074.21019126919 
1060	 5094.07495890606 
1061	 5114.70405860355 
1062	 5136.00979973704 
1063	 5156.56788203766 
1064	 5175.47526666893 
1065	 5195.26204018742 
1066	 5216.09470625557 
1067	 5236.68452963518 
1068	 5259.72029121595 
1069	 5282.15152307872 
1070	 5304.76298863493 
1071	 5329.2886056094 
1072	 5352.6955690964 
1073	 5376.06838622547 
1074	 5399.52717067257 
1075	 5420.95023893591 
1076	 5445.66936501349 
1077	 5472.79247774155 
1078	 5499.49953373181 
1079	 5527.52675149303 
1080	 5554.82946781333 
1081	 5581.48457571865 
1082	 5609.38035602842 
1083	 5637.02921216183 
1084	 5666.79885612881 
1085	 5697.7431974887 
1086	 5728.1471011277 
1087	 5760.75633942934 
1088	 5795.71910777566 
1089	 5830.09278755862 
1090	 5866.10867567956 
1091	 5904.84846575257 
1092	 5944.89919205407 
1093	 5986.65597218027 
1094	 6032.66982501254 
1095	 6075.92945846141 
1096	 6116.87799708754 
1097	 6162.13113013208 
1098	 6208.02510895657 
1099	 6257.26756272414 
1100	 6311.34005677343 
1101	 6364.40249994295 
1102	 6418.24507406582 
1103	 6473.5898710985 
1104	 6530.36399191332 
1105	 6586.09901581002 
1106	 6645.9924495575 
1107	 6707.72207989822 
1108	 6767.61628973065 
1109	 6832.81892162652 
1110	 6899.56971143254 
1111	 6968.61359606794 
1112	 7037.32243390833 
1113	 7109.3004249628 
1114	 7179.47543970022 
1115	 7250.52969416019 
1116	 7318.48429891138 
1117	 7383.83281501346 
1118	 7451.79430620023 
1119	 7518.01288357912 
1120	 7585.41677619549 
1121	 7657.76769799193 
1122	 7726.13948980339 
1123	 7792.69662827769 
1124	 7857.63604679881 
1125	 7920.91616607407 
1126	 7982.81433031787 
1127	 8042.54592417774 
1128	 8099.57822028921 
1129	 8157.80571738537 
1130	 8213.66547099096 
1131	 8272.72818184871 
1132	 8332.63045604266 
1133	 8394.42701453499 
1134	 8456.75088164472 
1135	 8522.39645650171 
1136	 8591.14361246627 
1137	 8659.97042228039 
1138	 8731.42766791202 
1139	 8802.67432852533 
1140	 8874.97943751873 
1141	 8946.37686959832 
1142	 9021.84534727403 
1143	 9090.66485988038 
1144	 9162.85118151022 
1145	 9221.76847953625 
1146	 9273.3707967185 
1147	 9316.45375822093 
1148	 9350.52990921223 
1149	 9373.00625276961 
1150	 9392.02193210942 
1151	 9403.61728495089 
1152	 9411.12678816428 
1153	 9412.78526651292 
1154	 9408.98337510544 
1155	 9396.94028215608 
1156	 9386.58681742956 
1157	 9370.43684356824 
1158	 9356.40079364497 
1159	 9343.47431446247 
1160	 9329.03784223965 
1161	 9311.80975545682 
1162	 9296.7234518869 
1163	 9279.88181189821 
1164	 9267.36644144155 
1165	 9259.27291726348 
1166	 9249.44568265187 
1167	 9238.76345402839 
1168	 9232.29582014557 
1169	 9225.43990515765 
1170	 9222.66801877679 
1171	 9229.99454787952 
1172	 9243.20996803298 
1173	 9267.25626541146 
1174	 9297.28599667989 
1175	 9342.46261566239 
1176	 9396.28184148571 
1177	 9467.61539519249 
1178	 9552.49323727303 
1179	 9652.15436637686 
1180	 9771.30450026808 
1181	 9894.94188646599 
1182	 10035.9479976668 
1183	 10174.171403568 
1184	 10323.5865003298 
1185	 10465.1851631252 
1186	 10613.5048791335 
1187	 10747.3041818479 
1188	 10874.9099070055 
1189	 10992.5853736283 
1190	 11100.7411050802 
1191	 11198.2322965004 
1192	 11286.3494482206 
1193	 11366.3992836198 
1194	 11435.8014242487 
1195	 11497.3065548045 
1196	 11556.3223059514 
1197	 11607.9730477603 
1198	 11660.7855439523 
1199	 11710.1539990539 
1200	 11758.7990927685 
1201	 11805.2972661648 
1202	 11850.8782790092 
1203	 11893.9282548745 
1204	 11938.5421454203 
1205	 11983.6915787998 
1206	 12027.8785889265 
1207	 12072.7673530326 
1208	 12115.0783119416 
1209	 12155.6675864185 
1210	 12195.6986783237 
1211	 12235.041364971 
1212	 12272.4620608942 
1213	 12307.3269663771 
1214	 12341.4266081928 
1215	 12374.3471020185 
1216	 12405.2725261031 
1217	 12432.8889379004 
1218	 12458.4595815695 
1219	 12482.5517106302 
1220	 12501.1817688834 
1221	 12519.8462298814 
1222	 12537.8919469315 
1223	 12553.87735339 
1224	 12567.5688497906 
1225	 12581.0384400304 
1226	 12591.4497337498 
1227	 12605.7195174641 
1228	 12620.8787266522 
1229	 12634.9198733919 
1230	 12653.6707880174 
1231	 12665.0886546305 
1232	 12669.2667998287 
1233	 12678.5825648412 
1234	 12685.6193233669 
1235	 12696.3468765512 
1236	 12711.9013318104 
1237	 12725.9592803231 
1238	 12739.926292936 
1239	 12756.3890927908 
1240	 12774.0555297022 
1241	 12789.5249917602 
1242	 12801.0394596554 
1243	 12814.5996325029 
1244	 12830.6305119615 
1245	 12847.7526987063 
1246	 12868.129930117 
1247	 12889.5023419494 
1248	 12906.7712653922 
1249	 12921.7892378025 
1250	 12939.4588584998 
1251	 12957.396828374 
1252	 12975.7598854259 
1253	 12995.4224146742 
1254	 13016.1082810598 
1255	 13037.4383138064 
1256	 13058.9846376463 
1257	 13082.6386498681 
1258	 13104.8520837991 
1259	 13126.686045587 
1260	 13147.9057876826 
1261	 13169.0716327977 
1262	 13187.5687332719 
1263	 13208.4187197229 
1264	 13228.4630647256 
1265	 13245.3236994446 
1266	 13262.33081506 
1267	 13276.9604263432 
1268	 13289.9436776734 
1269	 13301.2588868939 
1270	 13311.3721896203 
1271	 13317.5861509933 
1272	 13319.769947665 
1273	 13322.5040531009 
1274	 13321.4674150294 
1275	 13318.1509980795 
1276	 13313.3869490542 
1277	 13302.5458439352 
1278	 13288.3366473833 
1279	 13271.7738088803 
1280	 13249.3193628097 
1281	 13229.2056095048 
1282	 13208.3280618588 
1283	 13187.1311014241 
1284	 13167.2464133906 
1285	 13144.4333823842 
1286	 13118.910303212 
1287	 13093.8558202875 
1288	 13067.0585928207 
1289	 13041.0771476459 
1290	 13016.9145999853 
1291	 12995.8683662931 
1292	 12978.1253936997 
1293	 12962.163847687 
1294	 12946.3822547564 
1295	 12931.8076391144 
1296	 12918.8809760198 
1297	 12906.3461591233 
1298	 12898.7460122906 
1299	 12896.293119143 
1300	 12896.9980722956 
1301	 12898.202616534 
1302	 12900.9924935967 
1303	 12906.0073192145 
1304	 12907.8333337294 
1305	 12912.7900795711 
1306	 12924.2803678022 
1307	 12934.0252778357 
1308	 12943.3129403468 
1309	 12955.8751312648 
1310	 12966.6131706296 
1311	 12976.1352277011 
1312	 12989.3656289923 
1313	 13008.3717763644 
1314	 13023.0017744621 
1315	 13036.3168258684 
1316	 13052.2676512272 
1317	 13067.0394483627 
1318	 13082.8519738667 
1319	 13101.0402505996 
1320	 13119.0900945757 
1321	 13137.0445190405 
1322	 13156.6445772571 
1323	 13177.9011789136 
1324	 13202.2065029394 
1325	 13228.113590944 
1326	 13256.1852591863 
1327	 13285.4777099623 
1328	 13315.0630087864 
1329	 13343.9279248589 
1330	 13369.8524488122 
1331	 13392.1462644323 
1332	 13409.13988014 
1333	 13420.2351150528 
1334	 13425.4709552754 
1335	 13426.6466758898 
1336	 13419.0111707542 
1337	 13401.4338527531 
1338	 13378.1413237575 
1339	 13343.0398826709 
1340	 13300.1863677065 
1341	 13253.4177957324 
1342	 13202.9720561635 
1343	 13147.4917871408 
1344	 13093.2796066145 
1345	 13042.3498711191 
1346	 12990.8059578861 
1347	 12945.2343424377 
1348	 12904.6183150176 
1349	 12868.2319364243 
1350	 12835.2394010424 
1351	 12807.20039488 
1352	 12786.3615586853 
1353	 12766.2113573912 
1354	 12749.946740149 
1355	 12734.6809275431 
1356	 12719.0255565427 
1357	 12698.5893247566 
1358	 12674.5098614076 
1359	 12650.0508429329 
1360	 12617.3850373691 
1361	 12588.7008901097 
1362	 12560.6347243371 
1363	 12533.2943896546 
1364	 12516.0652435773 
1365	 12504.1399852364 
1366	 12505.6040223353 
1367	 12523.1657082795 
1368	 12557.5065550778 
1369	 12600.1689049451 
1370	 12650.2951961496 
1371	 12700.6898612994 
1372	 12745.0488589546 
1373	 12784.9352303252 
1374	 12814.5056446704 
1375	 12834.4715154318 
1376	 12837.2608659954 
1377	 12829.6813177911 
1378	 12812.0076942704 
1379	 12786.6169194334 
1380	 12761.4987597915 
1381	 12740.3813057662 
1382	 12726.3341349282 
1383	 12721.1782716042 
1384	 12731.5379186661 
1385	 12750.7927384346 
1386	 12781.1248229949 
1387	 12822.4443034119 
1388	 12868.545586 
1389	 12917.8594470266 
1390	 12969.132922581 
1391	 13024.739134207 
1392	 13079.5832543265 
1393	 13135.7656539036 
1394	 13192.1755076937 
1395	 13250.4706189954 
1396	 13306.5558543198 
1397	 13359.0442077295 
1398	 13412.7827006782 
1399	 13466.2013810062 
1400	 13519.2406651685 
1401	 13573.6505259957 
1402	 13627.7509821053 
1403	 13680.7671961457 
1404	 13734.2491637955 
1405	 13789.4500070647 
1406	 13846.1959375236 
1407	 13902.4493630876 
1408	 13961.8367221197 
1409	 14022.564971652 
1410	 14085.9883757448 
1411	 14153.7411111807 
1412	 14216.2819639041 
1413	 14276.0340620534 
1414	 14334.2404008629 
1415	 14391.0745121348 
1416	 14447.5364768065 
1417	 14504.1769383571 
1418	 14559.9875320574 
1419	 14610.4166966466 
1420	 14662.0823613732 
1421	 14714.425802001 
1422	 14758.8700757109 
1423	 14799.6980436192 
1424	 14835.8235290767 
1425	 14864.4234471992 
1426	 14889.9627803117 
1427	 14911.9125277807 
1428	 14928.41209586 
1429	 14938.5549940946 
1430	 14939.8080756204 
1431	 14932.2685320326 
1432	 14919.6768823573 
1433	 14900.8380067873 
1434	 14881.7990256925 
1435	 14864.1558531797 
1436	 14842.899065205 
1437	 14817.8107509808 
1438	 14788.6568611571 
1439	 14759.3630877629 
1440	 14730.2044044009 
1441	 14703.5636685013 
1442	 14685.0809498972 
1443	 14669.8727122732 
1444	 14660.3191659999 
1445	 14654.6875479534 
1446	 14654.4292641544 
1447	 14654.7383032479 
1448	 14657.6287325303 
1449	 14663.8319571912 
1450	 14675.805419104 
1451	 14686.1930627276 
1452	 14698.9610981305 
1453	 14709.4142222984 
1454	 14717.3406776757 
1455	 14724.8218725765 
1456	 14732.676556661 
1457	 14739.4702521169 
1458	 14747.5499388153 
1459	 14756.9115437335 
1460	 14764.462111257 
1461	 14776.2154990364 
1462	 14785.3803814698 
1463	 14788.4173399585 
1464	 14793.0769699372 
1465	 14797.0578145344 
1466	 14803.2194804238 
1467	 14811.7378457687 
1468	 14821.7247039068 
1469	 14831.59622658 
1470	 14836.9651887311 
1471	 14845.5575621765 
1472	 14854.8168129001 
1473	 14861.2569953392 
1474	 14872.687755008 
1475	 14883.1980676818 
1476	 14891.7507451614 
1477	 14901.8903795675 
1478	 14910.0876817247 
1479	 14919.8654971409 
1480	 14928.2248408864 
1481	 14933.3689717876 
1482	 14937.3741406444 
1483	 14940.9322156782 
1484	 14943.948648241 
1485	 14945.8950915291 
1486	 14952.0568109986 
1487	 14956.5209092908 
1488	 14957.7313702066 
1489	 14962.1638492 
1490	 14966.5599497048 
1491	 14970.5384946094 
1492	 14977.8150638622 
1493	 14984.758209342 
1494	 14989.4039194422 
1495	 14993.2955454707 
1496	 14996.6363942692 
1497	 14999.7667186805 
1498	 14998.8769483325 
1499	 14998.8544918625 
1500	 14999.8959446004 
1501	 14996.0483995392 
1502	 14995.0469882633 
1503	 14994.2836497736 
1504	 14988.7590109871 
1505	 14984.6077140834 
1506	 14980.1751890578 
1507	 14972.8227696028 
1508	 14964.8408430089 
1509	 14954.3406634548 
1510	 14941.1713856855 
1511	 14928.5809578117 
1512	 14910.8199068858 
1513	 14891.0570000928 
1514	 14875.4395355297 
1515	 14856.9210869572 
1516	 14840.0730243191 
1517	 14825.0201334839 
1518	 14804.1248248344 
1519	 14783.1627117148 
1520	 14762.9255087891 
1521	 14740.0242952147 
1522	 14716.2424557347 
1523	 14693.5460480081 
1524	 14669.9971282258 
1525	 14646.4863202757 
1526	 14625.6809009873 
1527	 14604.1237762934 
1528	 14581.7975915962 
1529	 14560.3361430742 
1530	 14539.7194274444 
1531	 14516.4996449731 
1532	 14494.5088703757 
1533	 14475.5822103339 
1534	 14452.4598858141 
1535	 14431.1426937579 
1536	 14410.1617290695 
1537	 14383.1101504999 
1538	 14357.5346493014 
1539	 14332.7867723154 
1540	 14306.5505810706 
1541	 14282.3658352448 
1542	 14257.8562196716 
1543	 14233.6989897702 
1544	 14210.755077221 
1545	 14187.1267790161 
1546	 14164.8823510347 
1547	 14144.8661294658 
1548	 14125.609513146 
1549	 14105.6895469948 
1550	 14086.0183739645 
1551	 14065.1887806125 
1552	 14040.2549641519 
1553	 14017.129057961 
1554	 13995.1093474517 
1555	 13971.8505801204 
1556	 13953.2562371952 
1557	 13932.958886126 
1558	 13910.9460877427 
1559	 13889.7806958677 
1560	 13865.5522340439 
1561	 13840.2904650902 
1562	 13814.5222108787 
1563	 13789.0726137967 
1564	 13759.811733989 
1565	 13730.8922252109 
1566	 13702.4471100147 
1567	 13668.8141735557 
1568	 13637.6610457884 
1569	 13605.1479534647 
1570	 13569.7524736247 
1571	 13537.0234804783 
1572	 13503.7809116065 
1573	 13469.383542013 
1574	 13435.5221545005 
1575	 13401.1583841977 
1576	 13365.3164656041 
1577	 13327.6721538111 
1578	 13285.9614431027 
1579	 13243.5742632574 
1580	 13200.3174131316 
1581	 13155.8616335806 
1582	 13116.0741318832 
1583	 13074.7790288159 
1584	 13030.1252183708 
1585	 12987.3207129118 
1586	 12943.4254144177 
1587	 12896.0291023958 
1588	 12848.5367550807 
1589	 12800.4242756673 
1590	 12748.0828336134 
1591	 12694.9528116703 
1592	 12640.8104032649 
1593	 12584.8385781496 
1594	 12527.3482681694 
1595	 12467.0244974379 
1596	 12407.3883906928 
1597	 12345.2717463921 
1598	 12278.6630288575 
1599	 12210.9410740124 
1600	 12141.529177037 
1601	 12068.2553314405 
1602	 11992.8513030686 
1603	 11918.6673406002 
1604	 11842.1164312015 
1605	 11765.9055556966 
1606	 11692.8465376767 
1607	 11620.6727570877 
1608	 11549.5811411274 
1609	 11480.453764544 
1610	 11414.9632563406 
1611	 11354.0744832905 
1612	 11296.6188279793 
1613	 11242.2778440648 
1614	 11192.8854568509 
1615	 11145.361437749 
1616	 11103.0026008767 
1617	 11062.1876784952 
1618	 11018.2454616623 
1619	 10978.776109997 
1620	 10938.8881103241 
1621	 10897.0529460202 
1622	 10860.1427427114 
1623	 10821.548907585 
1624	 10779.8407759334 
1625	 10740.4401764613 
1626	 10699.9969262522 
1627	 10654.8533612823 
1628	 10607.3773464965 
1629	 10559.1907359006 
1630	 10509.7608633887 
1631	 10459.3351168576 
1632	 10408.4055281266 
1633	 10356.1590806481 
1634	 10300.8121254821 
1635	 10244.0424784225 
1636	 10187.644674061 
1637	 10126.5825830642 
1638	 10062.1662638321 
1639	 9994.50484012788 
1640	 9923.80578445664 
1641	 9849.67539549708 
1642	 9773.92754114549 
1643	 9692.27078972722 
1644	 9606.30492942784 
1645	 9514.17201488291 
1646	 9418.82600167297 
1647	 9314.26522207479 
1648	 9204.79633174748 
1649	 9084.34375423319 
1650	 8957.94846594992 
1651	 8814.90511125785 
1652	 8661.17750510652 
1653	 8491.80732315567 
1654	 8307.55510586036 
1655	 8108.83705429858 
1656	 7897.08996411107 
1657	 7668.58444492223 
1658	 7420.73647524239 
1659	 7166.25529147216 
1660	 6895.48494969662 
1661	 6621.85521818218 
1662	 6333.90634807925 
1663	 6056.37241828604 
1664	 5767.79809484244 
1665	 5504.85852815972 
1666	 5250.60446287758 
1667	 5018.42419927183 
1668	 4800.34527184832 
1669	 4607.7761317317 
1670	 4434.56803179031 
1671	 4284.96682217502 
1672	 4162.24945898071 
1673	 4050.63393744557 
1674	 3962.90957265444 
1675	 3875.69681221922 
1676	 3800.47935765872 
1677	 3730.3616026893 
1678	 3663.97008680207 
1679	 3615.42368432118 
1680	 3574.97626275112 
1681	 3557.56326426991 
1682	 3554.54493686539 
1683	 3575.28069461054 
1684	 3619.98489358028 
1685	 3690.47594608518 
1686	 3776.19255267555 
1687	 3888.94810597471 
1688	 3997.61611198626 
1689	 4125.08012353656 
1690	 4235.42866435667 
1691	 4348.53947635357 
1692	 4437.05350276963 
1693	 4513.99553308228 
1694	 4564.03828769058 
1695	 4589.08386638751 
1696	 4595.51175323872 
1697	 4577.14770356917 
1698	 4543.05596603824 
1699	 4488.7354286764 
1700	 4421.22707986443 
1701	 4331.32277311593 
1702	 4237.96984202139 
1703	 4130.39642504189 
1704	 4021.4790467347 
1705	 3904.54416498246 
1706	 3788.35927223484 
1707	 3666.01871438105 
1708	 3548.96245856435 
1709	 3429.14480446653 
1710	 3319.82993311593 
1711	 3214.99754502265 
1712	 3117.50366269425 
1713	 3024.92625592148 
1714	 2945.6701833965 
1715	 2873.06957556899 
1716	 2814.26947536826 
1717	 2767.83811499764 
1718	 2734.06671514796 
1719	 2710.92454658544 
1720	 2702.40848890372 
1721	 2708.61979899196 
1722	 2725.6048335779 
1723	 2754.99053970773 
1724	 2794.54652725035 
1725	 2846.02993503101 
1726	 2910.05600025648 
1727	 2982.88323429909 
1728	 3061.38640208732 
1729	 3148.05365936807 
1730	 3236.84368342342 
1731	 3326.60014538732 
1732	 3426.95204069485 
1733	 3521.30433758689 
1734	 3621.03294488389 
1735	 3708.87745593868 
1736	 3790.6906027327 
1737	 3863.47217920826 
1738	 3925.27702297338 
1739	 3981.87784431018 
1740	 4033.52254151488 
1741	 4074.68298853064 
1742	 4108.33750351623 
1743	 4133.18420192889 
1744	 4144.67425944198 
1745	 4156.31778545639 
1746	 4159.74806084456 
1747	 4165.5682446824 
1748	 4167.66212520896 
1749	 4175.19601892002 
1750	 4182.26599836825 
1751	 4197.08320995497 
1752	 4215.7761533005 
1753	 4242.53933658191 
1754	 4274.44684615886 
1755	 4318.25453904043 
1756	 3585.07776119583 
1757	 3678.62989262572 
1758	 3777.73288268217 
1759	 3872.12015953575 
1760	 3982.04258129217 
1761	 4077.12476721212 
1762	 4158.67688315674 
1763	 4239.03029025615 
1764	 4325.52904018789 
1765	 4420.80746816583 
1766	 4503.39959729976 
1767	 4582.49005988007 
1768	 4660.83696164593 
1769	 4739.08467879504 
1770	 4794.43722168056 
1771	 4860.05317644856 
1772	 4947.55438874309 
1773	 5017.93688303673 
1774	 5081.21985264999 
1775	 5149.12720865403 
1776	 5213.20645177383 
1777	 5275.70761853239 
1778	 5342.80303890195 
1779	 5401.46094595107 
1780	 5455.92243659235 
1781	 5521.80998149995 
1782	 5569.5347968243 
1783	 5630.71112632995 
1784	 5689.54008595385 
1785	 5756.70763830897 
1786	 5794.99289405635 
1787	 5830.51772018772 
1788	 5858.6368840748 
1789	 5877.0837774652 
1790	 5898.44333571867 
1791	 5926.72317617134 
1792	 5960.20862016797 
1793	 5983.05187530465 
1794	 6011.59072080252 
1795	 6037.9928400787 
1796	 6073.32436012361 
1797	 6106.71920550669 
1798	 6144.75430134959 
1799	 6177.20678520901 
1800	 6203.58028033625 
1801	 6222.67809335284 
1802	 6237.48106744545 
1803	 6254.54379175432 
1804	 6266.26024117984 
1805	 6282.72716025108 
1806	 6302.36578181016 
1807	 6321.87985896403 
1808	 6343.4569291224 
1809	 6359.0685840201 
1810	 6370.73830183317 
1811	 6396.01116041607 
1812	 6430.4454458096 
1813	 6478.76004230434 
1814	 6521.80983659725 
1815	 6579.63114233893 
1816	 6622.9953339619 
1817	 6658.40795376007 
1818	 6689.06918855184 
1819	 6720.49556808557 
1820	 6764.03146706459 
1821	 6808.40868214835 
1822	 6859.58544230489 
1823	 6908.75158988856 
1824	 6965.60166370203 
1825	 7013.55036844134 
1826	 7061.46523393675 
1827	 7104.52514322574 
1828	 7144.93061553825 
1829	 7169.73690105748 
1830	 7211.05973505667 
1831	 7249.9732769033 
1832	 7300.89499281069 
1833	 7367.6018083007 
1834	 7424.25705495253 
1835	 7487.73177003356 
1836	 7541.49863367811 
1837	 7577.77147787465 
1838	 7629.61428562418 
1839	 7686.54390013054 
1840	 7746.77846914965 
1841	 7800.8922238106 
1842	 7865.22276214449 
1843	 7914.78675384476 
1844	 7943.96004349922 
1845	 7990.22307713976 
1846	 8043.31972608855 
1847	 8093.39855145796 
1848	 8158.83702242369 
1849	 8200.89910640798 
1850	 8239.01604627217 
1851	 8279.27439452672 
1852	 8312.91667371769 
1853	 8342.32617181096 
1854	 8370.46151457826 
1855	 8396.27566156352 
1856	 8416.80883598859 
1857	 8436.62783741401 
1858	 8442.90091109349 
1859	 8452.52997398351 
1860	 8447.08770959423 
1861	 8436.65905296361 
1862	 8432.40042637254 
1863	 8418.00375759642 
1864	 8390.42385033804 
1865	 8377.68053359026 
1866	 8355.38624126836 
1867	 8351.47339354292 
1868	 8360.32639791224 
1869	 8380.27360908433 
1870	 8398.34846549618 
1871	 8431.49621287445 
1872	 8480.1602864487 
1873	 8532.8226466188 
1874	 8586.09107977147 
1875	 8633.75576683764 
1876	 8664.92750654701 
1877	 8682.64463924512 
1878	 8684.42935797624 
1879	 8678.66398197213 
1880	 8659.62021887056 
1881	 8633.43471189949 
1882	 8581.24966962401 
1883	 8511.5052677839 
1884	 8429.91153878133 
1885	 8329.3063785336 
1886	 8228.08064474692 
1887	 8117.50204528113 
1888	 7999.4110523609 
1889	 7874.56715216177 
1890	 7737.85179612561 
1891	 7592.89329168771 
1892	 7457.13553969899 
1893	 7330.44164521333 
1894	 7224.15294600572 
1895	 7135.29400646322 
1896	 7051.4491011223 
1897	 6984.04279736483 
1898	 6928.44145102714 
1899	 6889.85342581542 
1900	 6866.21994814058 
1901	 6861.27666595379 
1902	 6864.12094759352 
1903	 6866.74249505414 
1904	 6873.14057566028 
1905	 6889.00006656735 
1906	 6914.32935973036 
1907	 6932.41239596839 
1908	 6959.28200599551 
1909	 6991.5391997662 
1910	 7027.81490378888 
1911	 7070.49581045709 
1912	 7117.00702582089 
1913	 7172.67066341753 
1914	 7218.3310017576 
1915	 7266.84378478524 
1916	 7325.08856592149 
1917	 7380.13968814137 
1918	 7436.69394857434 
1919	 7498.58373906976 
1920	 7566.59971777012 
1921	 7627.94037030025 
1922	 7686.39471235114 
1923	 7753.77445352565 
1924	 7825.93056911107 
1925	 7896.19879775049 
1926	 7978.52920318334 
1927	 8050.32305075127 
1928	 8112.12457581484 
1929	 8147.15358406819 
1930	 8194.25585464966 
1931	 8234.77745545589 
1932	 8277.00790045218 
1933	 8330.46312450705 
1934	 8366.98853150337 
1935	 8389.55580980376 
1936	 8414.26391172616 
1937	 8433.19611121077 
1938	 8446.89432825727 
1939	 8456.85629340865 
1940	 8465.55576645598 
1941	 8473.9411086237 
1942	 8473.88391385826 
1943	 8485.84169708564 
1944	 8508.57648081351 
1945	 8519.94286334573 
1946	 8531.01030746071 
1947	 8538.55236263474 
1948	 8538.12423770235 
1949	 8539.78641742988 
1950	 8541.08240176361 
1951	 8544.23004979656 
1952	 8547.92598248456 
1953	 8548.74353782236 
1954	 8552.48606791608 
1955	 8557.50409769465 
1956	 8564.62674802608 
1957	 8573.6530569078 
1958	 8581.23347797401 
1959	 8592.50662507633 
1960	 8599.61342204216 
1961	 8611.19335042021 
1962	 8609.26136610925 
1963	 8599.53435427496 
1964	 8587.53152536255 
1965	 8570.31183544738 
1966	 8537.5856737927 
1967	 8518.26512685092 
1968	 8505.42354067216 
1969	 8482.67066368185 
1970	 8459.43896790184 
1971	 8432.49128940488 
1972	 8397.47883896372 
1973	 8363.9609078839 
1974	 8333.64783462689 
1975	 8296.31987327674 
1976	 8252.56371887359 
1977	 8209.55431116596 
1978	 8159.72320279117 
1979	 8114.96882445252 
1980	 8070.65538349996 
1981	 8027.6301900563 
1982	 7984.31352073599 
1983	 7945.23693184857 
1984	 7897.03300101095 
1985	 7845.56742328537 
1986	 7793.36777806123 
1987	 7734.66334643317 
1988	 7679.310984201 
1989	 7616.86929249018 
1990	 7566.72010018075 
1991	 7522.20044389611 
1992	 7481.6557111258 
1993	 7449.06832530895 
1994	 7418.70610522389 
1995	 7376.15339933465 
1996	 7326.98131354132 
1997	 7276.377344567 
1998	 7213.0525101508 
1999	 7163.67954103883 
2000	 7121.88580076076 
2001	 7072.60917057714 
2002	 7031.00580511363 
2003	 6978.62729066962 
2004	 6907.59975852579 
2005	 6850.63506146597 
2006	 6805.67197956027 
2007	 6759.66523754611 
2008	 6728.4957108458 
2009	 6694.71702842443 
2010	 6653.75778145626 
2011	 6606.47418517775 
2012	 6559.97381582075 
2013	 6508.99286924875 
2014	 6460.95606895485 
2015	 6410.35672975066 
2016	 6363.77677306074 
2017	 6321.31610993825 
2018	 6278.00359925315 
2019	 6234.84216040728 
2020	 6192.63889589002 
2021	 6154.58237552921 
2022	 6116.72656845273 
2023	 6078.59163651845 
2024	 6042.93040319854 
2025	 6010.63375404031 
2026	 5976.14481616808 
2027	 5947.32056887847 
2028	 5933.11197205105 
2029	 5904.19456916806 
2030	 5872.08045151969 
2031	 5839.82255139869 
2032	 5801.06829889809 
2033	 5757.72659513762 
2034	 5728.55848409174 
2035	 5693.97103533975 
2036	 5665.71525430019 
2037	 5637.58842693612 
2038	 5604.03071493226 
2039	 5572.5401810564 
2040	 5551.60754155072 
2041	 5533.49948716151 
2042	 5511.12805185639 
2043	 5497.37636143322 
2044	 5473.58150814098 
2045	 5441.48686139855 
2046	 5409.19661929965 
2047	 5371.15796546237 
2048	 5334.33774018396 
2049	 5292.76111713734 
2050	 5253.67093089211 
2051	 5229.82536750444 
2052	 5211.2954949612 
2053	 5196.98516637671 
2054	 5179.99396711746 
2055	 5141.51288727448 
2056	 5097.85518276627 
2057	 5058.14327375712 
2058	 5017.84765856323 
2059	 4978.73964675782 
2060	 4946.34696564655 
2061	 4910.87217552837 
2062	 4870.86749266292 
2063	 4830.86784449858 
2064	 4790.38647313887 
2065	 4751.81894422299 
2066	 4719.93161236824 
2067	 4692.35934870224 
2068	 4665.43944038273 
2069	 4636.16089993998 
2070	 4580.57926010686 
2071	 4523.91643698973 
2072	 4463.39078889446 
2073	 4386.90568640886 
2074	 4325.62355846738 
2075	 4257.85311544843 
2076	 4187.8267206799 
2077	 4122.07031285633 
2078	 4048.18842076703 
2079	 3966.07288331403 
2080	 3882.64241896931 
2081	 3795.5741374459 
2082	 3702.66869794823 
2083	 3606.1943579399 
2084	 3519.62125061534 
2085	 3435.14854606117 
2086	 3346.70794973364 
2087	 3269.16677625429 
2088	 3193.3753349163 
2089	 3109.55408326091 
2090	 3038.9283409803 
2091	 2978.99055809615 
2092	 2915.08565937836 
2093	 2858.55898323305 
2094	 2798.37166546149 
2095	 2744.77543604818 
2096	 2691.5444086922 
2097	 2642.68427612674 
2098	 2598.40278759812 
2099	 2563.81513697451 
2100	 2523.87960313531 
2101	 2477.04978959882 
2102	 2436.39431426772 
2103	 2395.30143739717 
2104	 2357.23126926103 
2105	 2327.48141661934 
2106	 2290.94245080253 
2107	 2258.44185110614 
2108	 2236.9992484486 
2109	 2211.1802724438 
2110	 2187.4126467253 
2111	 2168.96939902373 
2112	 2130.30021415341 
2113	 2089.13271774868 
2114	 2061.79344559933 
2115	 2036.905914959 
2116	 2016.04609503853 
2117	 2006.53766938472 
2118	 2002.24407994692 
2119	 1997.26616610764 
2120	 2007.9489302248 
2121	 2030.31423058508 
2122	 2055.83563391132 
2123	 2078.90768322639 
2124	 2113.80343764141 
2125	 2157.54840502704 
2126	 2195.71216979824 
2127	 2244.7833310094 
2128	 2287.91235216914 
2129	 2321.77567704474 
2130	 2357.21863170935 
2131	 2376.35549117342 
2132	 2393.28629592613 
2133	 2407.63318824411 
2134	 2409.92707896802 
2135	 2420.34820377748 
2136	 2437.25842131382 
2137	 2446.53883144666 
2138	 2462.27980228451 
2139	 2465.93875444047 
2140	 2458.95572065163 
2141	 2450.09654258669 
2142	 2443.50085598016 
2143	 2435.3769638716 
2144	 2438.85476386459 
2145	 2448.16807553442 
2146	 2455.55801149139 
2147	 2454.53144243445 
2148	 2447.67454003303 
2149	 2443.14110892066 
2150	 2440.89827613235 
2151	 2447.65826575427 
2152	 2464.25522191083 
2153	 2478.90301633886 
2154	 2498.28828420743 
2155	 2522.062438424 
2156	 2548.19480725724 
2157	 2584.99846616252 
2158	 2618.57944702514 
2159	 2660.60175667777 
2160	 2689.65131708915 
2161	 2713.3543672874 
2162	 2726.80018549603 
2163	 2730.91391808648 
2164	 2726.23983624327 
2165	 2731.6251321816 
2166	 2745.71958943623 
2167	 2752.1921386928 
2168	 2762.14188116002 
2169	 2755.28942595667 
2170	 2742.30814971248 
2171	 2743.25440745556 
2172	 2739.46926599151 
2173	 2741.73486820469 
2174	 2748.54836685343 
2175	 2738.04305671108 
2176	 2737.26587528973 
2177	 2744.55540157319 
2178	 2746.95133666567 
2179	 2763.60174693492 
2180	 2773.55240373762 
2181	 2781.77306833327 
2182	 2797.11635787257 
2183	 2800.59177211814 
2184	 2800.11613135239 
2185	 2796.28911388448 
2186	 2775.47149265711 
2187	 2766.82933094643 
2188	 2762.46011954363 
2189	 2760.79072338476 
2190	 2757.20054447715 
2191	 2757.1284524323 
2192	 2754.17044667486 
2193	 2747.0435636348 
2194	 2740.12433227861 
2195	 2723.88257776843 
2196	 2693.62892096805 
2197	 2658.35159707504 
2198	 2621.91519154077 
2199	 2593.55677790343 
2200	 2562.3608642232 
2201	 2543.68236933431 
2202	 2531.06150123012 
2203	 2514.20249625294 
2204	 2505.90158838821 
2205	 2486.17569579411 
2206	 2455.7992846614 
2207	 2411.4047862832 
2208	 2360.47108177571 
2209	 2315.42527541335 
2210	 2280.31265461328 
2211	 2257.3402962388 
2212	 2230.97518818939 
2213	 2216.57297603811 
2214	 2188.41412428361 
2215	 2155.28124832363 
2216	 2112.86016966795 
2217	 2068.04653472414 
2218	 2008.39173066071 
2219	 1932.77016363597 
2220	 1858.35347003123 
2221	 1780.39082284471 
2222	 1692.25660604685 
2223	 1613.40872420499 
2224	 1536.3121376646 
2225	 1461.22868044635 
2226	 1378.9803962933 
2227	 1305.92143621499 
2228	 1237.15747522856 
2229	 1146.58936045425 
2230	 1074.33611815587 
2231	 992.786660324383 
2232	 895.949394477268 
2233	 815.480920894309 
2234	 732.246647283749 
2235	 645.090988459121 
2236	 560.685639915207 
2237	 487.504226641229 
2238	 408.168388449142 
2239	 346.068492928056 
2240	 299.472143287686 
2241	 256.340838522745 
2242	 226.010407532792 
2243	 193.683533162651 
2244	 165.919209128039 
2245	 143.101174444453 
2246	 120.329494500097 
2247	 104.1574648128 
2248	 94.3421422069974 
2249	 81.9391702006619 
2250	 64.4788890008035 
2251	 67.9382709521437 
2252	 88.4343167350314 
2253	 100.875046944981 
2254	 127.038935456172 
2255	 142.464641500452 
2256	 146.692869675759 
2257	 151.257882430839 
2258	 163.245400255943 
2259	 180.165924819836 
2260	 193.652028442896 
2261	 206.663843884495 
2262	 226.168382036551 
2263	 230.505839915582 
2264	 241.35878042751 
2265	 251.890967774703 
2266	 252.322402982476 
2267	 254.74334863212 
2268	 241.305485690315 
2269	 218.920960077214 
2270	 194.659311511886 
2271	 163.58044349142 
2272	 136.308688213871 
2273	 120.077957345562 
2274	 96.9254754006619 
2275	 82.4181935290484 
2276	 76.0829491001702 
2277	 66.5442849038484 
2278	 69.7162279593603 
2279	 70.658396667578 
2280	 64.1154587864674 
2281	 62.2815909713032 
2282	 60.9113079770463 
2283	 55.65685393655 
2284	 54.5225171283369 
2285	 50.4524627234222 
2286	 43.7634345102836 
2287	 31.2609534985823 
2288	 25.8987135976103 
2289	 16.4562622093929 
2290	 19.2681775089382 
2291	 35.1167610331978 
2292	 43.6255510388604 
2293	 57.5056630290922 
2294	 65.7583518685208 
2295	 63.0879397401444 
2296	 66.5345815945397 
2297	 73.9800383865365 
2298	 82.4218059856123 
2299	 95.8594679925153 
2300	 104.10188200446 
2301	 107.988513687084 
2302	 116.243230017048 
2303	 125.986402364867 
2304	 132.60658351386 
2305	 143.460446038251 
2306	 147.12260016785 
2307	 142.447943926949 
2308	 141.094567460344 
2309	 141.577694088173 
2310	 135.074398053858 
2311	 126.118584074291 
2312	 110.655563522399 
2313	 95.921551616789 
2314	 85.2520625333217 
2315	 85.384761503424 
2316	 90.1667602614826 
2317	 88.0145365792472 
2318	 87.6232110228949 
2319	 92.6006851695884 
2320	 97.1973824996944 
2321	 107.80052492006 
2322	 122.721482340756 
2323	 129.121142416867 
2324	 133.252415031501 
2325	 134.159778505904 
2326	 132.340045226158 
2327	 125.446629099181 
2328	 120.603036307394 
2329	 121.613892182364 
2330	 126.030280319107 
2331	 133.279950109002 
2332	 136.554775573664 
2333	 141.029520578165 
2334	 139.068235623909 
2335	 140.835139629267 
2336	 142.175625978084 
2337	 135.818340355293 
2338	 132.965387755602 
2339	 119.906071144991 
2340	 111.215312626241 
2341	 98.564228530481 
2342	 76.086883120771 
2343	 66.3060504346012 
2344	 50.8594409438941 
2345	 43.077926700289 
2346	 52.8640747024259 
2347	 66.7864498918261 
2348	 86.6661923984993 
2349	 101.400101706898 
2350	 117.028863929029 
2351	 127.30397788863 
2352	 126.985442085425 
2353	 135.683263731069 
2354	 139.653962731602 
2355	 147.693587070325 
2356	 157.446074683515 
2357	 158.955853838222 
2358	 164.164999694013 
2359	 153.432048042126 
2360	 145.127232446779 
2361	 138.388988680767 
2362	 131.810098225212 
2363	 133.848495499523 
2364	 127.915071812641 
2365	 136.240318817162 
2366	 143.245690982356 
2367	 145.021993399254 
2368	 160.418349652274 
2369	 162.308340482904 
2370	 156.503131306963 
2371	 161.80638568064 
2372	 162.139722193655 
2373	 161.865747422933 
2374	 170.259801517736 
2375	 169.149809468794 
2376	 169.411571287645 
2377	 172.276649703264 
2378	 164.886267377723 
2379	 158.852608420806 
2380	 145.955163296669 
2381	 135.0550908079 
2382	 132.585515843328 
2383	 129.718337888801 
2384	 130.124624386271 
2385	 119.778539275128 
2386	 107.869675566821 
2387	 102.716850899531 
2388	 99.9234372258816 
2389	 110.884645120037 
2390	 124.267005916647 
2391	 135.236230946509 
2392	 144.022113128222 
2393	 141.880243441051 
2394	 135.392317967073 
2395	 127.410630869022 
2396	 113.237717294103 
2397	 100.262505969212 
2398	 98.219556478346 
2399	 95.0360909018966 
2400	 89.6150784998409 
2401	 90.654599555295 
2402	 88.3993111966006 
2403	 87.8020187091989 
2404	 95.8082011384392 
2405	 91.8120041440156 
2406	 83.4499512988466 
2407	 76.6417195848697 
2408	 56.8484042746521 
2409	 56.7293867832768 
2410	 63.1271111900883 
2411	 59.4092069295289 
2412	 66.4771468805096 
2413	 66.8654804152934 
2414	 64.5207291483681 
2415	 66.7169616197371 
2416	 74.2121886243509 
2417	 75.3942621544082 
2418	 66.8286517988137 
2419	 60.16708720589 
2420	 41.8514505146298 
2421	 27.645840953681 
2422	 27.8191113595136 
2423	 27.8120724750888 
2424	 26.3260858796962 
2425	 25.3879172229756 
2426	 25.4316157471478 
2427	 18.6241296150399 
2428	 23.9853297398026 
2429	 36.2742110535992 
2430	 37.5489841849772 
2431	 48.6608058138676 
2432	 50.9267759278154 
2433	 43.6472139372247 
2434	 36.1527389591622 
2435	 28.0960991932924 
2436	 24.7451268129035 
2437	 23.2983549227057 
2438	 31.1060216401748 
2439	 35.5710524381116 
2440	 35.3550804128531 
2441	 32.1907131955717 
2442	 22.3619021951702 
2443	 10.3535609160809 
2444	 4.19768065002336 
2445	 3.26549537517528 
2446	 5.44150691120403 
2447	 11.6576837071632 
2448	 15.3142983103898 
2449	 12.6110176724823 
2450	 10.560587143606 
2451	 7.31102876173357 
2452	 0.442912470105274 
2453	 7.65536198601619 
2454	 11.2571897602671 
2455	 12.8439472547728 
2456	 15.1801175533319 
2457	 7.2593557912748 
2458	 10.6409330612509 
2459	 13.7611770110583 
2460	 19.9979305687942 
2461	 29.2480416095283 
2462	 35.1624743008333 
2463	 45.1884521436255 
2464	 51.9664294894279 
2465	 68.6655977353658 
2466	 73.184221288667 
2467	 77.1151867424491 
2468	 72.9112876263439 
2469	 59.366801732847 
2470	 56.2801566617467 
2471	 53.7458826230483 
2472	 50.443094270619 
2473	 58.9185184031066 
2474	 64.6814422787326 
2475	 66.8414323597045 
2476	 76.340299118234 
2477	 82.8231401528806 
2478	 86.7224856063428 
2479	 83.7944369183981 
2480	 76.4096114101525 
2481	 73.4108100889261 
2482	 71.5723017400751 
2483	 71.5131846477277 
2484	 74.0037580032534 
2485	 74.3785640001469 
2486	 74.704164695533 
2487	 78.8326390631056 
2488	 67.928859520755 
2489	 61.6980601862298 
2490	 57.3918540726523 
2491	 44.3857813934435 
2492	 54.0900502682546 
2493	 55.5718142620656 
2494	 54.0529337163639 
2495	 61.657593379608 
2496	 58.6039274223131 
2497	 64.1075249707506 
2498	 66.9286339589523 
2499	 67.0676597595417 
2500	 71.3586610853589 
