Wavelength	2mm_WhitePLA00000.asd
350	 0.731731230645759 
351	 0.697373959388878 
352	 0.795745062693586 
353	-9.04612604382939E-02 
354	 0.719735710647398 
355	 1.3983608404404 
356	 0.565670561738369 
357	 0.305745968627967 
358	 1.0949114192478 
359	 1.94517646254025 
360	 0.681083531600976 
361	 0.666196268615978 
362	 0.798349944560048 
363	-0.114668906287822 
364	 1.08325099561787 
365	 2.34866690415301 
366	 2.33556209664509 
367	 0.592735136846564 
368	 0.70673240839395 
369	 1.62580294406628 
370	 1.07616671822584 
371	 0.332539287905478 
372	-3.42297800024858E-02 
373	 0.37375574581273 
374	 1.98511903117633 
375	 3.04340378317889 
376	 2.81227045998475 
377	 1.29683754027187 
378	 0.737775967641569 
379	 0.576264653431135 
380	 7.07660875053166E-02 
381	-0.896371553391475 
382	 0.131868865530186 
383	 2.08238236329224 
384	 0.842169335100068 
385	-1.29704058163541E-02 
386	-0.147061828600876 
387	 6.45923968160896E-02 
388	 0.885857689079083 
389	 1.95014392774719 
390	 2.60363634482961 
391	 1.63196410328706 
392	 1.05665413315127 
393	 0.947747057072034 
394	 0.614981162074932 
395	 0.237163323417354 
396	 0.202968442244444 
397	 0.802530974505557 
398	 2.26490722573845 
399	 2.56169668367147 
400	 1.93763481247691 
401	 2.3935385324721 
402	 2.85918916813892 
403	 3.48830448925479 
404	 4.30696709883094 
405	 3.51850839672467 
406	 2.67436083968627 
407	 2.82202740134515 
408	 4.2586936734054 
409	 4.97557961699564 
410	 5.42221797352384 
411	 7.10157370748138 
412	 10.2102085095262 
413	 13.3433189412751 
414	 15.9289662877249 
415	 20.3138535899019 
416	 25.3338550063947 
417	 30.9698945794497 
418	 38.1623330159242 
419	 45.7347613568041 
420	 52.7420114479587 
421	 58.6293760590863 
422	 64.2627927951154 
423	 71.3250060265744 
424	 79.8133781247656 
425	 86.6456939024563 
426	 91.891204761292 
427	 96.9295414613762 
428	 103.875133947101 
429	 109.935025729581 
430	 114.728488304769 
431	 118.561104158867 
432	 122.3742304093 
433	 125.883875312357 
434	 129.035344769154 
435	 132.125573894545 
436	 134.252068823559 
437	 136.656496036459 
438	 140.933489259628 
439	 143.698720625161 
440	 145.704769677045 
441	 147.801303805106 
442	 149.561394452146 
443	 151.359262690408 
444	 153.264461755286 
445	 155.076341851145 
446	 157.798576345194 
447	 160.301040913312 
448	 161.603629828868 
449	 166.291793440574 
450	 169.108570996923 
451	 168.278399708693 
452	 170.790625108475 
453	 175.568908593866 
454	 180.232507269953 
455	 181.217469298155 
456	 183.097091742838 
457	 185.436421308436 
458	 187.263594318404 
459	 191.097275323162 
460	 194.877474702332 
461	 197.594816190988 
462	 200.309771785097 
463	 203.486098836309 
464	 206.917705861266 
465	 210.004299508236 
466	 213.519499380106 
467	 217.179689099589 
468	 220.829402335235 
469	 225.96318683748 
470	 229.846161799298 
471	 232.434798907199 
472	 238.233526046047 
473	 242.188043340604 
474	 245.193719412315 
475	 250.715781811312 
476	 257.584606370133 
477	 263.733230220342 
478	 268.080421669775 
479	 273.620246159708 
480	 279.775533680236 
481	 285.79564623647 
482	 290.520122996049 
483	 297.178437655024 
484	 304.944317822311 
485	 311.349454181784 
486	 317.551013989135 
487	 324.659554267537 
488	 332.974065725933 
489	 339.938872765177 
490	 347.697775012225 
491	 356.838252444238 
492	 365.974825177638 
493	 375.059318182998 
494	 384.009727264905 
495	 392.847220763922 
496	 401.910869107461 
497	 411.66098892934 
498	 422.326653194491 
499	 433.60883655953 
500	 444.157354340783 
501	 453.916284299367 
502	 464.492735137404 
503	 475.121811589261 
504	 485.981316793761 
505	 497.549250389721 
506	 509.897373919315 
507	 521.075964775835 
508	 530.617548509822 
509	 544.101308133396 
510	 558.10039833669 
511	 571.214471040975 
512	 584.817742483477 
513	 596.685837962707 
514	 608.282352158913 
515	 622.541945667723 
516	 638.313565043266 
517	 653.811902960399 
518	 667.818001715083 
519	 681.384538391844 
520	 695.360185337903 
521	 710.338244210663 
522	 726.792079299061 
523	 742.758584994578 
524	 758.171689022654 
525	 773.94777501904 
526	 791.152971580272 
527	 808.374169522766 
528	 824.257526264521 
529	 839.459468684191 
530	 855.318756671248 
531	 872.158629376548 
532	 888.68410038714 
533	 905.916879546366 
534	 922.571526162462 
535	 936.473449871496 
536	 953.651932063359 
537	 970.759773395552 
538	 984.416389362468 
539	 1000.3016138596 
540	 1017.24756743514 
541	 1033.96980195236 
542	 1049.3411011012 
543	 1064.56827275939 
544	 1079.9604863858 
545	 1095.34293065059 
546	 1110.2391259288 
547	 1125.30123878126 
548	 1141.05271437014 
549	 1155.75281786327 
550	 1170.46383805097 
551	 1185.51659354195 
552	 1199.21377159434 
553	 1213.21757021268 
554	 1227.41663131648 
555	 1240.43779491106 
556	 1254.37327623489 
557	 1267.81507692485 
558	 1278.9523110313 
559	 1290.11489200566 
560	 1302.1430707336 
561	 1314.70275438382 
562	 1325.02258024388 
563	 1334.41272791957 
564	 1342.55668919051 
565	 1347.60487304891 
566	 1353.53740397952 
567	 1359.65539420479 
568	 1363.76054869139 
569	 1366.18707469985 
570	 1366.95093658556 
571	 1366.46985191795 
572	 1366.46483929016 
573	 1365.12054040228 
574	 1362.46936474524 
575	 1360.89906366855 
576	 1356.97778367706 
577	 1351.78266400181 
578	 1347.82485049314 
579	 1340.34077243339 
580	 1332.3586380624 
581	 1326.59791622644 
582	 1319.61564753953 
583	 1314.05890797051 
584	 1309.91002549372 
585	 1302.59312402077 
586	 1296.48639992258 
587	 1291.23433001775 
588	 1284.35255073216 
589	 1278.98152392354 
590	 1275.70250735839 
591	 1274.09894866803 
592	 1271.99435518465 
593	 1270.35582926566 
594	 1270.00171750529 
595	 1271.15790008122 
596	 1273.89501635761 
597	 1278.78140119947 
598	 1286.7096115071 
599	 1296.41179717828 
600	 1306.20108286708 
601	 1314.7949613912 
602	 1324.14058209135 
603	 1333.62101295498 
604	 1343.03618532879 
605	 1353.81860126028 
606	 1364.30166731135 
607	 1375.29250106059 
608	 1389.89421777288 
609	 1407.99802046063 
610	 1428.43037084269 
611	 1449.5245571865 
612	 1470.97099102507 
613	 1492.24718135032 
614	 1512.67290927834 
615	 1530.82472421994 
616	 1548.27582317567 
617	 1565.4902732457 
618	 1581.48959850199 
619	 1598.55181271463 
620	 1617.01366679623 
621	 1636.26189659038 
622	 1655.40091183967 
623	 1673.69455806903 
624	 1691.37396862329 
625	 1712.29310862589 
626	 1732.31982452812 
627	 1750.13346593525 
628	 1769.12283404027 
629	 1788.47792899707 
630	 1806.68400876261 
631	 1821.71647098057 
632	 1837.06128046422 
633	 1851.64160656928 
634	 1864.27577307189 
635	 1878.56800931636 
636	 1893.41079197855 
637	 1907.34641121372 
638	 1918.26292593793 
639	 1930.21615583451 
640	 1943.64077792854 
641	 1956.41140821726 
642	 1970.67347403629 
643	 1985.48316190581 
644	 1999.36876932177 
645	 2013.49861201394 
646	 2028.06251211101 
647	 2043.25032058761 
648	 2059.76372133704 
649	 2075.39528827206 
650	 2090.48781111422 
651	 2107.99317088124 
652	 2124.40766469994 
653	 2140.39361050289 
654	 2157.88550517707 
655	 2175.98378447957 
656	 2194.48990728372 
657	 2213.38236807849 
658	 2233.19446926332 
659	 2251.84336378422 
660	 2269.69261572526 
661	 2290.41777816718 
662	 2311.20354684278 
663	 2331.44449040124 
664	 2351.40956692419 
665	 2371.32851740407 
666	 2392.05996347047 
667	 2414.19508587459 
668	 2437.25585723442 
669	 2459.38967103031 
670	 2480.51458723428 
671	 2503.30105725374 
672	 2528.05754449124 
673	 2554.24438095097 
674	 2580.61570068577 
675	 2606.89501405288 
676	 2633.39388791796 
677	 2660.4286140195 
678	 2687.27804435482 
679	 2715.07086489164 
680	 2744.04755401062 
681	 2772.65323216756 
682	 2800.73350529821 
683	 2828.8507893299 
684	 2858.18949132671 
685	 2888.16032409228 
686	 2918.67908383346 
687	 2949.49575671611 
688	 2978.69940495749 
689	 3008.37689949868 
690	 3039.83776190299 
691	 3072.46989778705 
692	 3102.66272263129 
693	 3131.15222140109 
694	 3162.47116918615 
695	 3192.52139457697 
696	 3221.59384917267 
697	 3250.92589210357 
698	 3278.534946068 
699	 3306.42732923533 
700	 3335.37896341448 
701	 3361.85968109735 
702	 3388.10921734537 
703	 3413.76570950083 
704	 3435.77822469787 
705	 3460.37574911711 
706	 3485.76123322655 
707	 3507.82893120299 
708	 3529.59277659008 
709	 3551.4823997345 
710	 3572.98794429008 
711	 3591.72732145951 
712	 3609.27529133052 
713	 3626.85531474809 
714	 3645.56475494652 
715	 3661.97336839064 
716	 3677.55298489183 
717	 3695.21414901265 
718	 3710.82256004852 
719	 3725.57573968068 
720	 3740.54109825112 
721	 3753.80869473992 
722	 3765.91609194415 
723	 3777.72228189849 
724	 3790.62907429099 
725	 3802.89517311656 
726	 3815.47758883202 
727	 3830.06620073293 
728	 3842.95457535789 
729	 3856.08443785057 
730	 3870.69969662205 
731	 3882.05723824368 
732	 3895.62156875758 
733	 3912.28025539097 
734	 3926.68480877474 
735	 3942.17845017857 
736	 3958.34275069142 
737	 3973.30030995468 
738	 3986.6615119349 
739	 3999.22995314558 
740	 4011.49379787869 
741	 4021.64172262919 
742	 4032.79130276262 
743	 4045.46021263719 
744	 4056.72315704192 
745	 4066.66077670588 
746	 4074.92858254744 
747	 4081.41963064272 
748	 4088.76809624273 
749	 4097.22368369675 
750	 4105.98990625007 
751	 4112.40389656021 
752	 4117.95333995724 
753	 4122.93047079457 
754	 4125.92884484563 
755	 4129.05950895952 
756	 4132.14976983647 
757	 4134.03989965361 
758	 4134.41518044011 
759	 4131.68832942634 
760	 4126.70397472091 
761	 4128.7445565381 
762	 4130.54516011134 
763	 4130.27387097648 
764	 4132.6006550755 
765	 4134.24400443601 
766	 4134.48693807112 
767	 4133.34203006573 
768	 4129.09320331835 
769	 4124.12305952718 
770	 4120.41580769042 
771	 4117.34781118584 
772	 4114.52710802191 
773	 4111.45406067396 
774	 4107.53073111447 
775	 4100.91965265162 
776	 4093.89103739886 
777	 4089.34136891029 
778	 4082.75993746997 
779	 4075.48138088025 
780	 4068.20367016172 
781	 4058.06054347214 
782	 4049.27216387283 
783	 4041.47195959851 
784	 4030.49662368257 
785	 4020.31026843398 
786	 4010.55519332134 
787	 3999.85913748369 
788	 3988.33341239936 
789	 3975.96988393423 
790	 3963.21331915444 
791	 3951.47968651631 
792	 3940.41081617187 
793	 3928.0506026653 
794	 3911.52761192181 
795	 3896.75679240827 
796	 3882.8381107527 
797	 3868.06876386038 
798	 3854.51757281089 
799	 3841.3458794971 
800	 3827.54143801754 
801	 3811.55883907398 
802	 3797.8886700136 
803	 3785.51835654757 
804	 3771.06094747299 
805	 3756.56319777865 
806	 3742.23302715388 
807	 3727.64190699079 
808	 3711.04563900164 
809	 3694.51316917851 
810	 3678.75347871148 
811	 3663.05532581305 
812	 3646.50207940818 
813	 3629.75085297364 
814	 3613.74889720315 
815	 3597.07803860499 
816	 3580.26832025398 
817	 3563.77225445145 
818	 3547.67697940616 
819	 3530.09344746184 
820	 3511.9822529965 
821	 3496.06560186078 
822	 3475.71259497333 
823	 3454.78678741545 
824	 3437.81874929358 
825	 3421.61425463703 
826	 3404.85095268036 
827	 3387.63291890838 
828	 3372.18498949596 
829	 3355.65681210007 
830	 3336.42498012664 
831	 3313.81062936149 
832	 3291.28207575461 
833	 3268.08712002426 
834	 3244.47495445526 
835	 3225.02818752181 
836	 3206.78449731081 
837	 3189.42347249495 
838	 3174.65824164397 
839	 3163.72937323161 
840	 3153.38378903528 
841	 3140.27942366039 
842	 3126.87454399214 
843	 3111.48174482081 
844	 3093.912425848 
845	 3076.43307478921 
846	 3059.00195087926 
847	 3041.41373094354 
848	 3023.41950991537 
849	 3006.49347821246 
850	 2988.4873548163 
851	 2968.63268639517 
852	 2950.85464072371 
853	 2932.81823025053 
854	 2914.0897148462 
855	 2895.58141467688 
856	 2878.49381200807 
857	 2861.26625645562 
858	 2842.12036670413 
859	 2820.81052900804 
860	 2801.32471440703 
861	 2784.0353518647 
862	 2764.50513527411 
863	 2747.19457076835 
864	 2730.40175413566 
865	 2711.09837770916 
866	 2692.80728763021 
867	 2673.45564704224 
868	 2652.75273718874 
869	 2635.02478154123 
870	 2617.87341225198 
871	 2600.66742328849 
872	 2583.45566121739 
873	 2565.50894467989 
874	 2546.63750014184 
875	 2526.92025421838 
876	 2506.7197448475 
877	 2486.73140612069 
878	 2467.38737915704 
879	 2448.8168474374 
880	 2428.80458009118 
881	 2407.2809542602 
882	 2384.98153406714 
883	 2363.29763619843 
884	 2342.35959659139 
885	 2321.03307542746 
886	 2296.73083814903 
887	 2270.6122958404 
888	 2244.58528094373 
889	 2220.41360781211 
890	 2197.23485566715 
891	 2174.04219844224 
892	 2150.92827183663 
893	 2129.63506374758 
894	 2110.88598999085 
895	 2093.3905816066 
896	 2075.24286020083 
897	 2057.41012419185 
898	 2041.08496516395 
899	 2026.74046184141 
900	 2013.12944509457 
901	 2003.34248306123 
902	 1996.07845992974 
903	 1988.12437512409 
904	 1981.15414369782 
905	 1975.69706306678 
906	 1970.8631290409 
907	 1962.66829989175 
908	 1953.32809836968 
909	 1943.02526942494 
910	 1930.92604732105 
911	 1917.52972464312 
912	 1903.90117076454 
913	 1890.91843568956 
914	 1879.15232106271 
915	 1865.11660924487 
916	 1849.69316844555 
917	 1836.50777540383 
918	 1821.41469730345 
919	 1806.54835853599 
920	 1793.47961417075 
921	 1779.05723980818 
922	 1762.69222115527 
923	 1746.32474621487 
924	 1733.49498218769 
925	 1719.06757256257 
926	 1703.91893845431 
927	 1689.30606698496 
928	 1674.02770254136 
929	 1658.33935893308 
930	 1641.63574188169 
931	 1622.87327229221 
932	 1604.85232930508 
933	 1588.54945683805 
934	 1573.63137470839 
935	 1557.19759944856 
936	 1540.97670849592 
937	 1525.75464733741 
938	 1511.52896567153 
939	 1496.63930191787 
940	 1480.53408336456 
941	 1463.64887170356 
942	 1448.49326684265 
943	 1432.81408807733 
944	 1416.82146494257 
945	 1402.08372141162 
946	 1386.09025718934 
947	 1369.73048389122 
948	 1354.36766765318 
949	 1341.60677922463 
950	 1326.72629278663 
951	 1310.27170281497 
952	 1295.46761274534 
953	 1280.1756572079 
954	 1266.60320878716 
955	 1254.47845499638 
956	 1236.75335025909 
957	 1221.04853848122 
958	 1207.16653481618 
959	 1191.89504202182 
960	 1175.9664071069 
961	 1161.95209269958 
962	 1149.503370776 
963	 1133.1889191594 
964	 1117.35535799119 
965	 1101.83387174513 
966	 1781.6362915738 
967	 1803.03312419663 
968	 1822.57843700458 
969	 1845.95421630936 
970	 1871.53684528825 
971	 1898.72945142888 
972	 1928.8639760062 
973	 1960.24307302799 
974	 1994.6333560251 
975	 2026.08193652924 
976	 2058.07061293442 
977	 2089.02279020576 
978	 2117.97317951943 
979	 2149.87064134221 
980	 2178.3081579355 
981	 2202.50294281202 
982	 2225.06431430968 
983	 2248.80013511881 
984	 2273.50840079448 
985	 2296.92096610075 
986	 2317.63118761684 
987	 2334.641336718 
988	 2353.34098451212 
989	 2370.69622253662 
990	 2388.23529025579 
991	 2407.56631395469 
992	 2425.1748656804 
993	 2440.91492448196 
994	 2456.86639138606 
995	 2473.8380138214 
996	 2488.72121694791 
997	 2504.08416670663 
998	 2520.47391805107 
999	 2538.18640074369 
1000	 2555.573955592 
1001	 2571.40810369183 
1002	 2588.82297987699 
1003	 2605.78755649621 
1004	 2622.14952542511 
1005	 2640.26127985563 
1006	 2660.89620055088 
1007	 2680.28831534047 
1008	 2699.94008304005 
1009	 2719.27811085934 
1010	 2738.69355080726 
1011	 2754.60885438489 
1012	 2771.57638410729 
1013	 2790.38263472158 
1014	 2809.1844755569 
1015	 2828.36527520303 
1016	 2847.16080396215 
1017	 2865.08034629841 
1018	 2882.38547185433 
1019	 2901.88887975068 
1020	 2922.03509231306 
1021	 2942.41387482005 
1022	 2964.16735434204 
1023	 2983.88523606667 
1024	 3002.62700978196 
1025	 3019.38215981032 
1026	 3036.65739918203 
1027	 3054.96454526128 
1028	 3073.09342936928 
1029	 3092.128746206 
1030	 3112.92609234539 
1031	 3127.57083096267 
1032	 3140.70495302396 
1033	 3158.47224594619 
1034	 3174.96804270135 
1035	 3193.78471206095 
1036	 3212.92524202991 
1037	 3229.17404544567 
1038	 3245.87864246842 
1039	 3263.32460713291 
1040	 3281.1799860488 
1041	 3301.02268282414 
1042	 3319.63126932486 
1043	 3337.7806412426 
1044	 3355.57718333688 
1045	 3374.47896437332 
1046	 3394.60329292983 
1047	 3411.98693433515 
1048	 3428.62570138707 
1049	 3446.32014218812 
1050	 3461.52413670015 
1051	 3477.41916803586 
1052	 3495.13064854001 
1053	 3510.42786626423 
1054	 3526.38989574859 
1055	 3547.02030521587 
1056	 3566.30337371819 
1057	 3581.62360386966 
1058	 3594.23250200938 
1059	 3607.92375931595 
1060	 3615.82446123712 
1061	 3630.16026999501 
1062	 3649.11673394925 
1063	 3667.05526723848 
1064	 3684.18808003483 
1065	 3701.58758594668 
1066	 3716.38237521267 
1067	 3731.98618356472 
1068	 3752.09968845683 
1069	 3769.99901089164 
1070	 3783.40407991317 
1071	 3799.91220157135 
1072	 3813.15381665441 
1073	 3825.65365813434 
1074	 3841.43115477503 
1075	 3858.91975240387 
1076	 3877.48516682016 
1077	 3899.19076006497 
1078	 3919.23942251923 
1079	 3942.046345187 
1080	 3961.6153632304 
1081	 3975.91934005575 
1082	 3995.04527422087 
1083	 4014.64853115946 
1084	 4036.03732050202 
1085	 4059.54521131196 
1086	 4083.17524612924 
1087	 4107.50148206854 
1088	 4129.47627091102 
1089	 4150.11782710198 
1090	 4175.27421894522 
1091	 4202.16305864023 
1092	 4229.86439157436 
1093	 4258.51393398094 
1094	 4291.5074935191 
1095	 4322.05942397973 
1096	 4350.11432727103 
1097	 4381.4974775571 
1098	 4415.68337056023 
1099	 4448.59089841507 
1100	 4480.09826681572 
1101	 4514.89712921145 
1102	 4551.68167246387 
1103	 4587.6254380709 
1104	 4623.26072872964 
1105	 4664.23952367555 
1106	 4702.9883259021 
1107	 4741.72035542476 
1108	 4785.18082101804 
1109	 4829.03234695679 
1110	 4872.05679826824 
1111	 4916.26876703107 
1112	 4958.24186351024 
1113	 4997.62157308053 
1114	 5040.00085638932 
1115	 5084.05573502954 
1116	 5125.39519067614 
1117	 5169.41012908581 
1118	 5208.28942232879 
1119	 5241.56237463045 
1120	 5276.43391669253 
1121	 5312.93340836796 
1122	 5343.60530448958 
1123	 5372.88625654747 
1124	 5398.26862259011 
1125	 5417.88181487266 
1126	 5435.24539024444 
1127	 5451.45855695418 
1128	 5465.60532104788 
1129	 5478.59383486907 
1130	 5486.90736315278 
1131	 5501.86982964857 
1132	 5516.21838382315 
1133	 5536.61058525396 
1134	 5561.90041543759 
1135	 5589.25179303178 
1136	 5620.47486077679 
1137	 5652.68011024495 
1138	 5689.02760579882 
1139	 5724.18099633287 
1140	 5760.71425715403 
1141	 5796.57186082528 
1142	 5837.78958530634 
1143	 5869.47989147882 
1144	 5900.38572825993 
1145	 5922.84940626745 
1146	 5940.3471283154 
1147	 5946.92516303864 
1148	 5944.90228979265 
1149	 5936.29304778575 
1150	 5916.43423354314 
1151	 5883.67339107736 
1152	 5848.07863817652 
1153	 5803.71565219917 
1154	 5757.19704175321 
1155	 5702.70968198424 
1156	 5650.27928160252 
1157	 5592.57892843708 
1158	 5539.41841453822 
1159	 5486.27758907621 
1160	 5435.94672767797 
1161	 5387.1298696119 
1162	 5341.13952555172 
1163	 5296.89709520576 
1164	 5255.72437046359 
1165	 5218.28417457083 
1166	 5182.08044713963 
1167	 5144.67215399156 
1168	 5114.92729184093 
1169	 5088.34610784604 
1170	 5065.45050443903 
1171	 5055.13918693563 
1172	 5051.06031186412 
1173	 5062.3496399871 
1174	 5082.79383287525 
1175	 5119.94161363397 
1176	 5168.71972897201 
1177	 5237.13317473735 
1178	 5321.90734940255 
1179	 5421.33873015031 
1180	 5541.10869847154 
1181	 5668.76527369259 
1182	 5814.89978547935 
1183	 5960.14528654273 
1184	 6122.58038406705 
1185	 6273.59976316092 
1186	 6428.81233263627 
1187	 6572.99675373833 
1188	 6712.86962791296 
1189	 6841.6970788601 
1190	 6963.27213299711 
1191	 7072.48129150879 
1192	 7170.52583065228 
1193	 7259.92671319582 
1194	 7336.70383961903 
1195	 7407.66797000431 
1196	 7472.89447912776 
1197	 7528.75368492768 
1198	 7583.5398278031 
1199	 7630.2544069641 
1200	 7681.61062814819 
1201	 7730.05246544713 
1202	 7782.55839809169 
1203	 7839.69144583744 
1204	 7893.88849267821 
1205	 7948.66125609273 
1206	 8001.35568694207 
1207	 8050.86992723116 
1208	 8101.84741734802 
1209	 8154.44395037667 
1210	 8204.30500309867 
1211	 8252.9837179689 
1212	 8303.21594590635 
1213	 8348.18531310461 
1214	 8388.99535999651 
1215	 8427.42426033107 
1216	 8460.60278778434 
1217	 8493.20549754712 
1218	 8525.87237073847 
1219	 8555.87416548261 
1220	 8586.18781873805 
1221	 8611.50444720584 
1222	 8632.1884057674 
1223	 8652.40178829202 
1224	 8669.35196404024 
1225	 8685.79497741215 
1226	 8702.57403637229 
1227	 8715.94485448526 
1228	 8725.55535114484 
1229	 8737.12734683925 
1230	 8744.85556721395 
1231	 8756.69576645451 
1232	 8770.96673225549 
1233	 8785.80069077821 
1234	 8805.62862611929 
1235	 8820.77089059534 
1236	 8834.64537569198 
1237	 8846.82001754102 
1238	 8856.74769599838 
1239	 8867.86950330063 
1240	 8881.43737028836 
1241	 8895.60515954915 
1242	 8911.27363981868 
1243	 8926.64865914082 
1244	 8941.83035120165 
1245	 8958.15467511525 
1246	 8973.40271271387 
1247	 8987.55386773832 
1248	 8998.55032913672 
1249	 9009.42566837253 
1250	 9023.07884162438 
1251	 9037.79973433289 
1252	 9051.64878996125 
1253	 9066.63789687838 
1254	 9082.98980932944 
1255	 9098.16115066566 
1256	 9115.74358905837 
1257	 9138.68757897192 
1258	 9157.83937874162 
1259	 9175.23691541594 
1260	 9192.69118123623 
1261	 9209.5219914828 
1262	 9224.30159390666 
1263	 9242.67167094834 
1264	 9260.47245902409 
1265	 9277.18511919162 
1266	 9294.23921032638 
1267	 9307.12455795704 
1268	 9319.24274758714 
1269	 9325.57579924188 
1270	 9327.72894275212 
1271	 9333.06995958105 
1272	 9335.58584598467 
1273	 9335.07632305835 
1274	 9336.34387809933 
1275	 9333.18874919997 
1276	 9324.79276420361 
1277	 9320.34791363507 
1278	 9315.64748581056 
1279	 9307.16006061919 
1280	 9297.1935957343 
1281	 9284.3167253701 
1282	 9265.92676682187 
1283	 9250.4043307416 
1284	 9234.17162035675 
1285	 9217.18434567703 
1286	 9201.92620870256 
1287	 9184.50285233844 
1288	 9164.11404851889 
1289	 9145.28577589445 
1290	 9127.85816631648 
1291	 9109.81190528119 
1292	 9096.74396073093 
1293	 9083.80795367749 
1294	 9069.65581675305 
1295	 9058.65407240234 
1296	 9049.08086052542 
1297	 9042.24932871144 
1298	 9039.39799466196 
1299	 9038.85563773946 
1300	 9038.23302647746 
1301	 9037.43773701244 
1302	 9037.25580364644 
1303	 9037.08701944241 
1304	 9039.44006326693 
1305	 9043.39655139954 
1306	 9046.38464608923 
1307	 9051.44210972529 
1308	 9058.12968593578 
1309	 9063.54679962712 
1310	 9071.85917675575 
1311	 9078.1083983087 
1312	 9082.90861337531 
1313	 9083.79801547352 
1314	 9088.87758552769 
1315	 9094.42957377145 
1316	 9103.10828742973 
1317	 9117.68872543038 
1318	 9126.45962453827 
1319	 9133.34802996262 
1320	 9140.1296411434 
1321	 9146.55349203228 
1322	 9152.28570968736 
1323	 9163.54376638278 
1324	 9173.6096459349 
1325	 9185.63139198354 
1326	 9199.45203865536 
1327	 9211.37427297509 
1328	 9223.14822718963 
1329	 9228.88192035337 
1330	 9227.8442048864 
1331	 9225.67833608051 
1332	 9214.52046968119 
1333	 9195.94848798506 
1334	 9171.53046972332 
1335	 9132.39576487568 
1336	 9084.02074342745 
1337	 9021.93901326517 
1338	 8945.8039489709 
1339	 8856.38953971537 
1340	 8759.34831416332 
1341	 8658.13684388754 
1342	 8549.61684862643 
1343	 8438.97808177517 
1344	 8331.00947255957 
1345	 8226.5819374587 
1346	 8130.5161378994 
1347	 8045.39920154025 
1348	 7970.28527540851 
1349	 7905.03607793521 
1350	 7851.65005559804 
1351	 7802.31900940916 
1352	 7766.06573702049 
1353	 7728.63884889987 
1354	 7695.05222222048 
1355	 7662.06268883629 
1356	 7630.45480578282 
1357	 7594.8106058385 
1358	 7553.00881769933 
1359	 7509.04022626671 
1360	 7456.06805455218 
1361	 7398.97538828301 
1362	 7339.4805621709 
1363	 7283.50819822925 
1364	 7233.33721992077 
1365	 7189.09330690534 
1366	 7156.15761035071 
1367	 7132.17006870082 
1368	 7120.93245448815 
1369	 7119.51613422651 
1370	 7128.81950084858 
1371	 7142.94178851825 
1372	 7159.84772965289 
1373	 7179.05362278996 
1374	 7194.81003511815 
1375	 7204.79299998117 
1376	 7205.53133786477 
1377	 7201.50700459309 
1378	 7190.5877722997 
1379	 7178.80749174879 
1380	 7167.22678733625 
1381	 7158.15743534102 
1382	 7153.46086249879 
1383	 7154.8873558254 
1384	 7170.72649770119 
1385	 7193.71427861413 
1386	 7227.87207554325 
1387	 7272.56768490434 
1388	 7321.67642929397 
1389	 7374.04730018849 
1390	 7426.06709289314 
1391	 7483.09654372306 
1392	 7534.36196905446 
1393	 7583.14676063806 
1394	 7629.67206830189 
1395	 7674.64389511501 
1396	 7715.56787105254 
1397	 7750.875723394 
1398	 7783.41634487611 
1399	 7813.872944948 
1400	 7843.69018767268 
1401	 7873.86280655447 
1402	 7908.80713099979 
1403	 7945.64955240427 
1404	 7983.75823821024 
1405	 8024.89278553766 
1406	 8068.01483489998 
1407	 8114.6293490973 
1408	 8163.50138649993 
1409	 8219.06137035556 
1410	 8278.59328106247 
1411	 8339.84912155343 
1412	 8403.65880653615 
1413	 8465.2958396506 
1414	 8523.85155518621 
1415	 8585.51173772085 
1416	 8644.89920548887 
1417	 8699.76423191142 
1418	 8757.46852307394 
1419	 8810.2791924545 
1420	 8864.39336081673 
1421	 8919.37382079458 
1422	 8968.0374887267 
1423	 9017.98834720973 
1424	 9062.96087695101 
1425	 9103.79804534568 
1426	 9146.36334392382 
1427	 9183.40489123481 
1428	 9209.33131794933 
1429	 9228.23105612848 
1430	 9241.38121226208 
1431	 9243.71890357054 
1432	 9238.84205709882 
1433	 9228.7957310307 
1434	 9213.9779706169 
1435	 9197.13416721492 
1436	 9178.85477580107 
1437	 9159.89982578908 
1438	 9140.67256418593 
1439	 9117.95741798184 
1440	 9095.9371407343 
1441	 9078.89589039277 
1442	 9064.66750639184 
1443	 9056.81975758084 
1444	 9054.85064049813 
1445	 9057.61050376808 
1446	 9066.0908200685 
1447	 9076.25638765987 
1448	 9091.46004235159 
1449	 9109.43772099366 
1450	 9130.35314337015 
1451	 9152.1538676898 
1452	 9178.12126044762 
1453	 9200.8886636904 
1454	 9223.0401990237 
1455	 9245.81234214904 
1456	 9266.61524136027 
1457	 9289.21833874877 
1458	 9310.92313799975 
1459	 9333.7212575757 
1460	 9357.27166524205 
1461	 9381.10552459015 
1462	 9404.27352463161 
1463	 9425.52789123165 
1464	 9447.20502667487 
1465	 9468.88292219467 
1466	 9493.53916347548 
1467	 9523.97880966724 
1468	 9557.9833277727 
1469	 9588.81734325579 
1470	 9619.4099799128 
1471	 9647.75620482828 
1472	 9671.99061463845 
1473	 9699.49605258439 
1474	 9727.65771541469 
1475	 9755.46108731852 
1476	 9780.632513232 
1477	 9802.70188863822 
1478	 9824.37362845084 
1479	 9844.1211767125 
1480	 9864.11597722701 
1481	 9885.17896905691 
1482	 9906.7004815281 
1483	 9927.37391228459 
1484	 9945.54492907097 
1485	 9965.01826278564 
1486	 9982.82771388042 
1487	 9997.59279470525 
1488	 10014.3368560496 
1489	 10029.3348765501 
1490	 10044.8498237058 
1491	 10064.8108479577 
1492	 10085.234759274 
1493	 10104.3064181502 
1494	 10123.3058737668 
1495	 10140.3417303453 
1496	 10153.5470633681 
1497	 10168.6725595769 
1498	 10185.6660449266 
1499	 10201.3450795631 
1500	 10217.0149812134 
1501	 10230.2143038927 
1502	 10243.1782146805 
1503	 10257.0708780371 
1504	 10268.75949727 
1505	 10281.8130895666 
1506	 10290.2956711531 
1507	 10292.8254613511 
1508	 10297.6183637334 
1509	 10298.9833724362 
1510	 10296.1814760849 
1511	 10292.3874778985 
1512	 10283.6794025024 
1513	 10273.229950485 
1514	 10266.4683853304 
1515	 10258.4076663346 
1516	 10247.5554809252 
1517	 10237.9160933667 
1518	 10226.2340537068 
1519	 10212.240280358 
1520	 10199.4317075118 
1521	 10188.7838626558 
1522	 10176.4382153518 
1523	 10163.6278808109 
1524	 10151.6651155612 
1525	 10135.6662560254 
1526	 10119.068198898 
1527	 10105.736648737 
1528	 10094.1783797672 
1529	 10083.0540628805 
1530	 10071.5646059386 
1531	 10056.6709946724 
1532	 10040.9317652738 
1533	 10025.0191580193 
1534	 10006.6193431587 
1535	 9988.13537970383 
1536	 9968.49958393667 
1537	 9950.23324051438 
1538	 9935.156638043 
1539	 9921.50337853762 
1540	 9906.83713059696 
1541	 9892.18076431686 
1542	 9878.31519798726 
1543	 9863.77898999021 
1544	 9852.35627119313 
1545	 9841.02043681759 
1546	 9828.11701306975 
1547	 9815.22949057545 
1548	 9802.53140634351 
1549	 9788.98913254275 
1550	 9775.28076471511 
1551	 9766.7723122791 
1552	 9760.8288725059 
1553	 9752.2928085439 
1554	 9742.02196901705 
1555	 9732.54581110446 
1556	 9718.43791994471 
1557	 9703.34913828303 
1558	 9691.51666016975 
1559	 9677.5264375221 
1560	 9664.35122956698 
1561	 9652.2489309959 
1562	 9641.38012519334 
1563	 9629.69346273182 
1564	 9615.66879830003 
1565	 9600.82312837658 
1566	 9582.09717176836 
1567	 9560.58963176954 
1568	 9539.76412230503 
1569	 9519.62852818595 
1570	 9498.21520389975 
1571	 9476.76642434221 
1572	 9453.93873042038 
1573	 9427.46659599363 
1574	 9400.60459639588 
1575	 9372.99901153405 
1576	 9344.0339594979 
1577	 9316.04361447111 
1578	 9287.79950581128 
1579	 9259.99483029578 
1580	 9234.0814852044 
1581	 9205.57083230148 
1582	 9175.19535842623 
1583	 9145.23311733068 
1584	 9113.1720037179 
1585	 9079.30275000993 
1586	 9042.89893810675 
1587	 9002.62109846332 
1588	 8961.05322254672 
1589	 8917.59593039246 
1590	 8871.60173544258 
1591	 8825.9812367862 
1592	 8776.53071161111 
1593	 8724.19559428585 
1594	 8673.15877766658 
1595	 8618.55834017599 
1596	 8558.11144765385 
1597	 8497.4254258498 
1598	 8434.30916059646 
1599	 8367.73190991287 
1600	 8306.78097458775 
1601	 8242.21592416182 
1602	 8171.8562600519 
1603	 8105.22428415667 
1604	 8033.64306980218 
1605	 7962.44987754432 
1606	 7894.6259880542 
1607	 7825.7494726532 
1608	 7762.18582144978 
1609	 7701.24963764526 
1610	 7644.89716054425 
1611	 7591.53383786992 
1612	 7537.95421461572 
1613	 7489.75439646724 
1614	 7447.66151158918 
1615	 7410.53230331802 
1616	 7380.56228464734 
1617	 7354.64410104445 
1618	 7329.97429831591 
1619	 7307.95299294954 
1620	 7286.69903042971 
1621	 7266.18728957405 
1622	 7247.34711426196 
1623	 7226.71111536061 
1624	 7202.31265155481 
1625	 7177.89221577113 
1626	 7153.67051621979 
1627	 7125.75389289058 
1628	 7097.19133785184 
1629	 7066.56235806966 
1630	 7030.20449489563 
1631	 6993.01085560868 
1632	 6953.96954740208 
1633	 6910.18761528143 
1634	 6865.917315129 
1635	 6817.86134740619 
1636	 6768.38734250941 
1637	 6715.45339215422 
1638	 6657.66549377091 
1639	 6597.48148027955 
1640	 6536.77947116323 
1641	 6470.21450062502 
1642	 6399.19020465787 
1643	 6324.10666527836 
1644	 6247.12442789034 
1645	 6159.9902251285 
1646	 6067.36697476425 
1647	 5967.35512206603 
1648	 5860.54805768967 
1649	 5742.64109133765 
1650	 5618.35530172163 
1651	 5481.5102384127 
1652	 5333.3988049274 
1653	 5172.26001541341 
1654	 5002.19607813526 
1655	 4817.45579371435 
1656	 4615.40772188675 
1657	 4407.25795393079 
1658	 4184.66146243687 
1659	 3960.10560511079 
1660	 3724.54308988537 
1661	 3494.23596981037 
1662	 3258.04205548802 
1663	 3032.61517972681 
1664	 2803.43276439481 
1665	 2599.6090223742 
1666	 2403.29077164024 
1667	 2233.5023524163 
1668	 2086.62088391599 
1669	 1955.23997555127 
1670	 1845.48260337252 
1671	 1745.55417368771 
1672	 1662.25323314865 
1673	 1588.55661232759 
1674	 1528.39048701784 
1675	 1475.13300409903 
1676	 1434.6755648548 
1677	 1396.41779957828 
1678	 1364.33826087077 
1679	 1339.91746133564 
1680	 1319.78526796654 
1681	 1313.66778437866 
1682	 1315.02360646315 
1683	 1334.21522006918 
1684	 1368.04317534799 
1685	 1420.60029935653 
1686	 1482.77667485299 
1687	 1563.02700262398 
1688	 1640.73005030371 
1689	 1730.0674909269 
1690	 1809.98010808509 
1691	 1894.05113611085 
1692	 1960.18291592386 
1693	 2020.96674006079 
1694	 2060.40636450119 
1695	 2082.03447735286 
1696	 2087.14186727727 
1697	 2071.1558068617 
1698	 2044.95821444871 
1699	 1998.16081347975 
1700	 1950.41054919925 
1701	 1894.46329334853 
1702	 1831.61058469165 
1703	 1760.8617454233 
1704	 1688.56731536178 
1705	 1605.28213969473 
1706	 1528.3095396749 
1707	 1452.09426637899 
1708	 1378.03745557688 
1709	 1303.83163166837 
1710	 1235.54279555597 
1711	 1168.61915099722 
1712	 1109.79428568062 
1713	 1056.34518261686 
1714	 1009.86706884598 
1715	 969.066686789779 
1716	 936.756719634181 
1717	 912.475684670179 
1718	 893.044408108096 
1719	 880.48253559717 
1720	 874.25172110368 
1721	 871.812372107718 
1722	 881.397351393269 
1723	 900.737719647177 
1724	 925.581208277222 
1725	 959.751701803131 
1726	 997.016055627527 
1727	 1038.72739684945 
1728	 1083.71739121523 
1729	 1135.79442593213 
1730	 1197.45970972194 
1731	 1260.50431236766 
1732	 1330.31410502375 
1733	 1394.55774689115 
1734	 1455.35382877247 
1735	 1514.05036584884 
1736	 1572.68611272939 
1737	 1624.77156489442 
1738	 1673.98971971968 
1739	 1715.66368409666 
1740	 1750.58128547216 
1741	 1780.7048011674 
1742	 1805.61137492205 
1743	 1824.90019571128 
1744	 1837.43677517283 
1745	 1847.31437510382 
1746	 1849.34373557158 
1747	 1853.7277269543 
1748	 1853.82957254326 
1749	 1861.30732113802 
1750	 1869.61764210169 
1751	 1884.96873221905 
1752	 1906.60315431147 
1753	 1931.01220430305 
1754	 1959.04751792713 
1755	 1993.03710490513 
1756	 1433.45389835115 
1757	 1486.05273700708 
1758	 1530.17993100262 
1759	 1587.19838973417 
1760	 1648.63692120901 
1761	 1706.07454530925 
1762	 1752.49711254061 
1763	 1815.37325197897 
1764	 1872.85814512247 
1765	 1914.43123290699 
1766	 1970.2435987962 
1767	 2052.22245836469 
1768	 2108.27491860533 
1769	 2156.6960195463 
1770	 2195.9913573682 
1771	 2224.7372022128 
1772	 2251.25750276168 
1773	 2284.33814497928 
1774	 2320.23296511908 
1775	 2355.95787849741 
1776	 2395.20237763544 
1777	 2433.6346375778 
1778	 2475.2925274954 
1779	 2503.19355390619 
1780	 2546.86890188974 
1781	 2589.2876226935 
1782	 2609.3043951966 
1783	 2621.54979962546 
1784	 2628.25127433978 
1785	 2617.27735097278 
1786	 2604.24590891379 
1787	 2612.63479001389 
1788	 2625.69375740451 
1789	 2643.69100652772 
1790	 2659.77163487606 
1791	 2663.18215089703 
1792	 2670.53402656746 
1793	 2684.46021718946 
1794	 2693.85024014758 
1795	 2707.37471265696 
1796	 2705.11871430485 
1797	 2689.77566233429 
1798	 2681.55401268851 
1799	 2668.38049713236 
1800	 2664.04648030951 
1801	 2678.25009957261 
1802	 2683.488998933 
1803	 2687.69065135922 
1804	 2687.07984774594 
1805	 2692.22100789295 
1806	 2698.66751973666 
1807	 2706.07696576254 
1808	 2713.6138257627 
1809	 2719.5489648807 
1810	 2730.52481556116 
1811	 2748.29484469006 
1812	 2760.74970772831 
1813	 2770.67125696305 
1814	 2789.17715157497 
1815	 2806.02871520671 
1816	 2827.5987134607 
1817	 2849.30677811824 
1818	 2892.81006985042 
1819	 2935.66897481172 
1820	 2972.361011542 
1821	 3009.16790712057 
1822	 3053.36148972335 
1823	 3087.45956548625 
1824	 3108.14814511754 
1825	 3139.61681589052 
1826	 3167.71474071399 
1827	 3205.66811767346 
1828	 3252.51630062517 
1829	 3303.27142246854 
1830	 3348.99481513804 
1831	 3400.6298680398 
1832	 3444.98805630087 
1833	 3481.51360950827 
1834	 3522.79886404499 
1835	 3569.89611084947 
1836	 3608.02067817387 
1837	 3646.53036812378 
1838	 3676.55056672889 
1839	 3688.41998663628 
1840	 3708.50098112211 
1841	 3737.52966344312 
1842	 3766.58766719644 
1843	 3803.28575049747 
1844	 3862.70889268747 
1845	 3899.77713821653 
1846	 3925.05718504373 
1847	 3957.739003925 
1848	 3981.20842401851 
1849	 4015.02537288189 
1850	 4059.07543696601 
1851	 4087.51589312178 
1852	 4118.33344307062 
1853	 4144.68797648826 
1854	 4171.90125531107 
1855	 4210.20613200019 
1856	 4227.73578406881 
1857	 4234.4481516515 
1858	 4238.60022680362 
1859	 4230.05386188578 
1860	 4214.89043723154 
1861	 4219.57906805175 
1862	 4219.26033338565 
1863	 4213.2780027835 
1864	 4204.02051717279 
1865	 4200.98248566609 
1866	 4193.21495502252 
1867	 4185.27519892769 
1868	 4182.18302872415 
1869	 4176.68699865383 
1870	 4163.65107701664 
1871	 4179.12257408068 
1872	 4195.03482445713 
1873	 4204.83650997884 
1874	 4224.29727430618 
1875	 4233.51578852822 
1876	 4235.47820943034 
1877	 4234.58424268768 
1878	 4230.78930883662 
1879	 4208.24340274825 
1880	 4172.6947773363 
1881	 4131.01010261175 
1882	 4089.6273027965 
1883	 4051.11678996481 
1884	 3999.32180785333 
1885	 3930.73614034516 
1886	 3842.58112977912 
1887	 3752.7413575864 
1888	 3647.01965997706 
1889	 3542.26162507283 
1890	 3438.00917747596 
1891	 3338.35259108655 
1892	 3234.19549333378 
1893	 3131.29768840225 
1894	 3037.32006525064 
1895	 2953.33834742789 
1896	 2880.3088731342 
1897	 2821.8590805205 
1898	 2773.10293377796 
1899	 2742.80261354743 
1900	 2729.26163722922 
1901	 2730.98158472205 
1902	 2743.12861165444 
1903	 2754.38048811799 
1904	 2756.27209696454 
1905	 2757.24564381207 
1906	 2760.84957889522 
1907	 2764.49307370305 
1908	 2783.09318017123 
1909	 2817.50309945999 
1910	 2847.25717785786 
1911	 2887.40722062488 
1912	 2924.7968606111 
1913	 2957.21335411646 
1914	 3001.6386801591 
1915	 3048.2353562941 
1916	 3084.44280737521 
1917	 3125.90149911877 
1918	 3164.68753797293 
1919	 3204.12879322732 
1920	 3239.47647834007 
1921	 3284.99377300527 
1922	 3332.76433296301 
1923	 3385.01790439979 
1924	 3444.31820258221 
1925	 3501.94871610538 
1926	 3565.51178587324 
1927	 3625.81735716238 
1928	 3681.26528055412 
1929	 3744.45523771723 
1930	 3791.44343140643 
1931	 3831.68813225307 
1932	 3867.54115950343 
1933	 3894.13302205185 
1934	 3915.27982443016 
1935	 3929.6598432374 
1936	 3940.46753511159 
1937	 3936.65910370162 
1938	 3944.61876559202 
1939	 3954.77608193544 
1940	 3966.67009200819 
1941	 3981.72251729194 
1942	 4003.54307466441 
1943	 4021.84296900187 
1944	 4043.29475161464 
1945	 4057.50166087058 
1946	 4073.7493197672 
1947	 4080.43296281091 
1948	 4069.64375878541 
1949	 4073.4834608187 
1950	 4079.5611362225 
1951	 4085.55433613747 
1952	 4099.52439031151 
1953	 4112.87682789412 
1954	 4123.64946619075 
1955	 4129.74932764592 
1956	 4139.09329087427 
1957	 4148.17704919885 
1958	 4161.33111136288 
1959	 4178.24581968857 
1960	 4191.44969810242 
1961	 4209.51489578456 
1962	 4221.23066899812 
1963	 4227.59877028399 
1964	 4232.64299103141 
1965	 4243.16801966241 
1966	 4238.21009340593 
1967	 4231.41535818942 
1968	 4215.27787142401 
1969	 4207.86252267961 
1970	 4196.53105912615 
1971	 4189.54010210753 
1972	 4195.0677319614 
1973	 4186.13611804336 
1974	 4169.99919219699 
1975	 4153.57494746758 
1976	 4129.16773054213 
1977	 4108.38374576967 
1978	 4092.91811228004 
1979	 4069.87912155163 
1980	 4042.44611547704 
1981	 4012.75143513579 
1982	 3977.04562064347 
1983	 3928.94361011413 
1984	 3892.45678438725 
1985	 3851.61169995436 
1986	 3824.32230971072 
1987	 3810.37562484508 
1988	 3791.87676167824 
1989	 3789.26680987541 
1990	 3768.08396057008 
1991	 3739.11376067872 
1992	 3698.66828110728 
1993	 3661.97197819529 
1994	 3627.71916538965 
1995	 3598.83850743767 
1996	 3581.67001261293 
1997	 3560.82458162469 
1998	 3537.88012163 
1999	 3518.18608998124 
2000	 3507.03711934023 
2001	 3481.06268752706 
2002	 3446.09663921346 
2003	 3416.89675773046 
2004	 3370.4688663344 
2005	 3352.81675143881 
2006	 3343.59106835115 
2007	 3329.46090492667 
2008	 3320.38045238468 
2009	 3301.48236170743 
2010	 3277.7625165684 
2011	 3243.29879166689 
2012	 3217.08140234674 
2013	 3185.75970755199 
2014	 3162.05620019571 
2015	 3143.78458894256 
2016	 3126.8217231747 
2017	 3119.35458747365 
2018	 3103.15537771806 
2019	 3084.40379026564 
2020	 3064.22457635305 
2021	 3041.26670663142 
2022	 3016.41970081602 
2023	 2999.72674867598 
2024	 2977.25568411495 
2025	 2958.92203662617 
2026	 2944.02850955448 
2027	 2925.13092902806 
2028	 2902.6066026121 
2029	 2890.22174977895 
2030	 2879.33046017442 
2031	 2870.52724597729 
2032	 2871.46361010597 
2033	 2870.50074897592 
2034	 2853.21273506651 
2035	 2827.04159579953 
2036	 2809.89317653968 
2037	 2786.41757108633 
2038	 2769.84621299128 
2039	 2770.33905071943 
2040	 2761.34815475557 
2041	 2748.51543863201 
2042	 2734.12630252401 
2043	 2714.87967535334 
2044	 2698.07632629107 
2045	 2683.04666978947 
2046	 2667.27958723379 
2047	 2650.42454143814 
2048	 2635.71353195316 
2049	 2623.66169476241 
2050	 2599.8178208319 
2051	 2590.06681882306 
2052	 2587.68344523398 
2053	 2574.3874130012 
2054	 2555.56946541337 
2055	 2522.64965302233 
2056	 2487.70778993224 
2057	 2460.52615931582 
2058	 2433.84820693804 
2059	 2410.91109169909 
2060	 2397.3338226056 
2061	 2375.16112772661 
2062	 2354.24893186784 
2063	 2328.51714501565 
2064	 2298.74286600534 
2065	 2264.41343754578 
2066	 2230.12101478003 
2067	 2193.25370836362 
2068	 2160.49809948159 
2069	 2128.35256726937 
2070	 2093.60183615512 
2071	 2052.50714818533 
2072	 2011.57048347579 
2073	 1966.92665265514 
2074	 1920.59561941743 
2075	 1876.48971392523 
2076	 1831.37537536627 
2077	 1788.65457380244 
2078	 1740.20930225668 
2079	 1690.95014048372 
2080	 1635.61971345575 
2081	 1574.13201505392 
2082	 1506.94065073527 
2083	 1444.08197669827 
2084	 1384.23229336064 
2085	 1331.84291601292 
2086	 1278.11522682823 
2087	 1228.58692477343 
2088	 1184.09816391897 
2089	 1134.48228861849 
2090	 1086.38163100272 
2091	 1035.81235379669 
2092	 987.085987286155 
2093	 948.882284352268 
2094	 920.934928658071 
2095	 890.727702344434 
2096	 861.881003546592 
2097	 839.003803128986 
2098	 819.044037764923 
2099	 799.49601374066 
2100	 794.256384823072 
2101	 786.495786862907 
2102	 772.710140154792 
2103	 766.518741076501 
2104	 742.826768347841 
2105	 732.537608888405 
2106	 729.81859204322 
2107	 708.562638093188 
2108	 689.102345563443 
2109	 673.848821758407 
2110	 655.862747472099 
2111	 636.539148370742 
2112	 627.737291375134 
2113	 617.324180678839 
2114	 608.111500783135 
2115	 597.870659536345 
2116	 597.403605551305 
2117	 602.308131164161 
2118	 605.73409218233 
2119	 613.312880949343 
2120	 622.817670104076 
2121	 629.305964677916 
2122	 639.986605536543 
2123	 660.678542962473 
2124	 688.204280595474 
2125	 714.048520634768 
2126	 738.64927889476 
2127	 761.829807807514 
2128	 774.879882748803 
2129	 789.146624016364 
2130	 805.146523158437 
2131	 825.586778932219 
2132	 854.965266951711 
2133	 875.85529411404 
2134	 909.552539942566 
2135	 931.95832881085 
2136	 940.937157006973 
2137	 953.439428059394 
2138	 966.375344865503 
2139	 971.899893014394 
2140	 971.295477362846 
2141	 986.16125366064 
2142	 987.168615622998 
2143	 980.279517380988 
2144	 987.784246599382 
2145	 993.769092424009 
2146	 1001.60160817084 
2147	 1021.32081677269 
2148	 1020.6970775897 
2149	 1008.61475011369 
2150	 1008.13735624478 
2151	 993.118810239182 
2152	 982.307013968178 
2153	 993.185573196834 
2154	 992.364359997891 
2155	 996.371554176784 
2156	 1012.54441801004 
2157	 1019.36916652671 
2158	 1030.38921568157 
2159	 1049.73939135216 
2160	 1060.79519654284 
2161	 1067.18473374265 
2162	 1073.91402522639 
2163	 1079.22789301619 
2164	 1075.28055994054 
2165	 1078.02545430144 
2166	 1079.12621351082 
2167	 1074.05183557683 
2168	 1068.83887452805 
2169	 1062.58176500273 
2170	 1063.53758752138 
2171	 1065.98529227445 
2172	 1066.46715489249 
2173	 1068.13220839145 
2174	 1075.89450212943 
2175	 1080.13832330181 
2176	 1079.82868394442 
2177	 1079.92808274587 
2178	 1071.50869073138 
2179	 1066.9441109325 
2180	 1069.82720356669 
2181	 1074.88059141448 
2182	 1083.13736101428 
2183	 1081.20987130682 
2184	 1068.76760360727 
2185	 1063.66124005647 
2186	 1054.73862552583 
2187	 1047.44960614141 
2188	 1042.4903692306 
2189	 1049.86589392617 
2190	 1043.00756122991 
2191	 1027.48547587133 
2192	 1021.1931862232 
2193	 1009.18384871274 
2194	 1000.66687329056 
2195	 996.787639062931 
2196	 984.515447216644 
2197	 977.001821499896 
2198	 972.394509652123 
2199	 968.608835093704 
2200	 971.355248008676 
2201	 969.788866160835 
2202	 964.477647677491 
2203	 960.13689586288 
2204	 951.808680587281 
2205	 940.129900565463 
2206	 921.469552408043 
2207	 899.84385162834 
2208	 878.087807898845 
2209	 852.775423294029 
2210	 833.913322283184 
2211	 822.421504680437 
2212	 807.749496284918 
2213	 795.706445815273 
2214	 777.564874312857 
2215	 752.516480092939 
2216	 728.937492328438 
2217	 707.576729717094 
2218	 684.997892853922 
2219	 661.732486528082 
2220	 641.79772142801 
2221	 608.770777852931 
2222	 566.086106072374 
2223	 529.861522951478 
2224	 487.706867470755 
2225	 445.893810956569 
2226	 408.430643989525 
2227	 369.416832627195 
2228	 334.149589223054 
2229	 306.507979459094 
2230	 278.088462716613 
2231	 249.169458833285 
2232	 212.604138124482 
2233	 178.09471233641 
2234	 151.959240075848 
2235	 123.951764373331 
2236	 105.884715888038 
2237	 90.5114086807166 
2238	 77.0850340202338 
2239	 71.6751772399218 
2240	 69.5506242747807 
2241	 70.6653386849058 
2242	 61.1476902104865 
2243	 54.3433569091259 
2244	 48.3937227716772 
2245	 38.4421823702687 
2246	 27.0258372802485 
2247	 22.4416137168208 
2248	 12.1456251064414 
2249	 8.39660525273468 
2250	 9.04858321559521 
2251	 7.0875968900081 
2252	 14.1467189984258 
2253	 16.6170814525326 
2254	 15.3190206748656 
2255	 21.0372286964692 
2256	 28.4377381268978 
2257	 29.7975884025362 
2258	 41.0095886254489 
2259	 46.688460927131 
2260	 53.8428510331815 
2261	 52.9118042698453 
2262	 52.1670319258265 
2263	 53.0585695713538 
2264	 49.9306261170306 
2265	 48.7584487256251 
2266	 37.4084430702732 
2267	 32.5068878592925 
2268	 21.4028468045757 
2269	 11.5656370428168 
2270	 14.7568747587492 
2271	 9.11458419165636 
2272	 15.9753092001882 
2273	 24.5554685384319 
2274	 27.1554149734347 
2275	 32.3041805979096 
2276	 24.942641510289 
2277	 13.8814489874597 
2278	 4.98375798115552 
2279	-3.86588379943374 
2280	-8.50282894251484 
2281	-8.17053315326814 
2282	-7.90109672919891 
2283	-7.12056384440364 
2284	-3.00545958346808 
2285	 4.56864361122341 
2286	 8.88247843684126 
2287	 9.16856004390074 
2288	 12.5855652850494 
2289	 17.2008325280269 
2290	 20.0325858182544 
2291	 28.3381709201768 
2292	 30.9399999250994 
2293	 27.4657155807653 
2294	 29.9947043048071 
2295	 29.5321448755384 
2296	 30.5165993461713 
2297	 42.3601435942754 
2298	 38.8454388536763 
2299	 20.9905309250808 
2300	 17.3331687401441 
2301	 9.20923813356302 
2302	 8.95276600392686 
2303	 30.2843638328693 
2304	 35.2919821008984 
2305	 32.4326893546155 
2306	 31.9697380147617 
2307	 21.9358231418958 
2308	 17.4928510837735 
2309	 17.3553469587169 
2310	 18.0494279218735 
2311	 19.1031135581442 
2312	 21.5639864550792 
2313	 15.4512888737113 
2314	 15.5478549192368 
2315	 19.3827112810363 
2316	 14.1310309984901 
2317	 20.7126565784753 
2318	 14.5428466218612 
2319	-6.63925329088177 
2320	-3.10086313359382 
2321	-2.94182533391102 
2322	 3.8435100976482 
2323	 19.9174585420777 
2324	 17.3647953924686 
2325	 22.9585914614669 
2326	 23.0904406974532 
2327	 21.9100296592168 
2328	 32.524668301018 
2329	 29.2375083853328 
2330	 30.1236413484785 
2331	 27.1603374149377 
2332	 21.0066476275533 
2333	 13.6189491689783 
2334	-0.679066980039133 
2335	 6.36918445614887 
2336	 10.2896152786924 
2337	 10.9072957461294 
2338	 21.4418414926708 
2339	 21.3525196454863 
2340	 11.0684598629981 
2341	 1.97633567990912 
2342	-5.13356478678799 
2343	-15.3465726844568 
2344	-18.9390999311302 
2345	-22.6639862503276 
2346	-25.0537927995059 
2347	-20.7036822130947 
2348	-23.1558598101338 
2349	-12.5826637362141 
2350	 3.3465666877015 
2351	 5.97127981885811 
2352	 10.1714719461184 
2353	 7.25603422570556 
2354	-3.05734812765485 
2355	 6.38593089872799E-02 
2356	 8.73879607194104 
2357	 9.82472776916793 
2358	 17.7779399889683 
2359	 14.6079851822026 
2360	 6.35217547280264 
2361	 10.9049194350943 
2362	 10.0301483830277 
2363	 17.0647390625881 
2364	 19.3906569451245 
2365	 9.65236698724329 
2366	 7.39701882469546 
2367	-1.83221030556372 
2368	-4.98950334748627 
2369	 1.47810736703466 
2370	-1.1200054605167 
2371	-2.18565547163912 
2372	 8.86899311731066E-02 
2373	 9.7029519165773 
2374	 24.3140139711526 
2375	 37.9653816943791 
2376	 37.8689698547159 
2377	 17.9117265940654 
2378	-5.23719867286657 
2379	-28.8246875536976 
2380	-36.9140588338598 
2381	-26.9480560638494 
2382	-20.9704846545475 
2383	-6.47695601044263 
2384	-0.905153966955632 
2385	-13.1797814432347 
2386	-8.66747900701091 
2387	-15.1531139538049 
2388	-25.1832979507153 
2389	-20.3650427597377 
2390	-25.0365279028153 
2391	-26.059356644431 
2392	-16.7636397645869 
2393	-4.38078575423515 
2394	 8.76998051731206 
2395	 20.7417525871568 
2396	 28.1606582589642 
2397	 33.6731473659368 
2398	 28.2869645465015 
2399	 22.7345973673726 
2400	 19.2125428550163 
2401	 10.9990249876235 
2402	 17.2027258108111 
2403	 22.9523328195255 
2404	 31.4720266660297 
2405	 36.5362655140888 
2406	 30.2748347920996 
2407	 31.6724749264021 
2408	 26.7149826727485 
2409	 25.4792588692567 
2410	 30.0514871141135 
2411	 23.8796783402684 
2412	 20.9467205520865 
2413	 19.669671529303 
2414	 20.4548206400267 
2415	 23.0260350844003 
2416	 17.1205405013089 
2417	 9.19992781273835 
2418	 6.73704250702627 
2419	 2.45556968769516 
2420	 0.250717050130442 
2421	 1.00618109886217 
2422	-7.99699861115267 
2423	-20.7839694741006 
2424	-34.9287360393367 
2425	-46.6240863025146 
2426	-50.4273062882796 
2427	-44.8881431800387 
2428	-30.418328184722 
2429	-13.9233950421373 
2430	 1.0120268682501 
2431	 9.51654569379036 
2432	 17.9716075712182 
2433	 24.8928228337462 
2434	 24.3229808678972 
2435	 26.8749524272303 
2436	 34.1006627713173 
2437	 41.5898852514561 
2438	 38.8877902041387 
2439	 39.3141723350458 
2440	 37.683126799629 
2441	 20.5318258374551 
2442	 20.7953441365347 
2443	 19.6957261850129 
2444	 9.84850730147478 
2445	 13.550109094895 
2446	 12.9433701817441 
2447	 4.40340790748965 
2448	-5.83105063427871 
2449	-10.8999948453302 
2450	-17.5471993762916 
2451	-16.2676909491514 
2452	-2.56844312378326 
2453	-2.24563219991152 
2454	 1.22192638896502 
2455	 2.52302486631797 
2456	-11.8848197560438 
2457	-12.2324046993093 
2458	-13.7018303061421 
2459	-21.1241275533877 
2460	-9.99082629078489 
2461	-5.13644402627543 
2462	-2.02368908226194 
2463	 5.61625010420899 
2464	 4.53295451099185 
2465	-7.34264173006308 
2466	-13.4761613719028 
2467	-19.6720662557843 
2468	-27.1121324232513 
2469	-17.2530442158923 
2470	-10.9298977301125 
2471	-12.889798383738 
2472	-16.2598563585733 
2473	-23.1464524057576 
2474	-30.0421633643828 
2475	-24.8290810883556 
2476	-17.8905306690257 
2477	-6.86617830603051 
2478	 4.93298471918982 
2479	 3.14044860090668 
2480	 7.95709737514716 
2481	 5.10015906230082 
2482	 3.67248752211906 
2483	 13.9127721297232 
2484	 16.1794629414849 
2485	 21.7198960788717 
2486	 26.604208670479 
2487	 22.6185120409101 
2488	 20.2261684644758 
2489	 14.8362397856712 
2490	-1.47450866447017 
2491	-15.7710544456689 
2492	-26.8411688359443 
2493	-35.7542407884449 
2494	-25.0564479122763 
2495	 2.34455312590103 
2496	 15.6652130399029 
2497	 22.9401202937644 
2498	 23.6805738258936 
2499	 6.46155369642557 
2500	 3.46404044087351 
