Wavelength	3mm_WhitePLA00000.asd
350	-1.16251787215082 
351	-0.450851974464624 
352	 1.12119021507095 
353	-0.266384691157436 
354	-0.208255717527476 
355	 0.163560335032118 
356	-0.374726175248012 
357	-0.630036707715424 
358	-4.77041098575511E-02 
359	 0.745128942605543 
360	 0.138987075270522 
361	-0.463548251140707 
362	-1.22131277698496 
363	-2.03681460138981 
364	 1.77946055693078E-02 
365	 1.10049111953636 
366	 0.273556444503643 
367	 0.422436979925578 
368	 0.474442449752457 
369	 2.30151118863151E-02 
370	-0.907134793711578 
371	-0.462447429549175 
372	-0.441807827630862 
373	-1.14414998275276 
374	 0.885963794287283 
375	 1.93018510268318 
376	 1.36808617286917 
377	 0.167976419094684 
378	-0.255936364725387 
379	-0.447549955270612 
380	-0.914417232223512 
381	-1.18144671399451 
382	 7.05556864503983E-02 
383	 1.55282784693097 
384	-0.261340850111948 
385	-1.33761950179074 
386	-1.3262715954262 
387	-0.74521056363071 
388	 0.712025415898821 
389	 1.65164117774863 
390	 1.30949196028953 
391	-0.286604995770246 
392	-0.619986945332705 
393	 0.118295212190085 
394	 0.559426328143445 
395	 0.588789296434669 
396	 0.459686680451924 
397	 0.361741098177591 
398	-1.46382418151829E-02 
399	 0.678157766011327 
400	 2.02070010178819 
401	 2.22301729039227 
402	 1.77956119984515 
403	 1.68776981681666 
404	 2.45534436565785 
405	 1.63910852005158 
406	 0.369737095662718 
407	 0.1040934832712 
408	 2.94927328285518 
409	 4.53088714817273 
410	 4.68057377957579 
411	 5.14848284762103 
412	 7.3420872742109 
413	 9.79295711293749 
414	 11.8316462648189 
415	 16.3290547994552 
416	 20.9408094359072 
417	 25.7977635961334 
418	 33.1578093748747 
419	 38.5721106238074 
420	 43.3503011969848 
421	 49.8185496874926 
422	 56.2745345605065 
423	 62.4670081735728 
424	 68.2072964276454 
425	 73.0617822563242 
426	 78.382895462202 
427	 84.2051083800041 
428	 89.8451069687292 
429	 95.7227862002908 
430	 100.022668255817 
431	 101.956850315152 
432	 105.858980289763 
433	 109.354427436296 
434	 111.842146432462 
435	 115.161300117643 
436	 117.192759310318 
437	 119.372309705456 
438	 123.853606270439 
439	 126.208955139141 
440	 127.478088791681 
441	 128.895704380789 
442	 130.181005522508 
443	 131.789624897582 
444	 133.79562628812 
445	 135.927619516367 
446	 138.672992911105 
447	 140.922507026064 
448	 141.83769773018 
449	 145.558628092602 
450	 148.001364456493 
451	 147.76669079287 
452	 150.424517366307 
453	 154.433849033411 
454	 158.249057895342 
455	 160.052460800673 
456	 161.507488728048 
457	 163.119092597262 
458	 165.296487881577 
459	 169.521217230548 
460	 172.746904034162 
461	 174.225299904305 
462	 177.745765332737 
463	 180.662488615727 
464	 182.851813878134 
465	 185.427723264882 
466	 189.187194688936 
467	 192.977695840915 
468	 195.867737386859 
469	 199.648792600829 
470	 203.13656822371 
471	 206.274174517135 
472	 210.999723505179 
473	 214.901355250815 
474	 218.162765848705 
475	 222.263061653875 
476	 229.047491113426 
477	 235.390423640592 
478	 238.952039231845 
479	 243.311453242097 
480	 248.509578545735 
481	 254.104274312262 
482	 258.962581873377 
483	 264.71599612616 
484	 271.320721151041 
485	 277.916884548674 
486	 282.946122146859 
487	 288.960022898501 
488	 297.439639902515 
489	 303.951713403288 
490	 310.681908961423 
491	 318.534851878733 
492	 326.851773669414 
493	 334.349027240465 
494	 341.675179761502 
495	 350.270747255817 
496	 359.520882126574 
497	 369.401082006392 
498	 379.671279614134 
499	 389.321960241884 
500	 397.660141847027 
501	 405.421884423733 
502	 415.260588727623 
503	 425.947959275918 
504	 436.619803925504 
505	 446.612275053122 
506	 457.787860311401 
507	 468.228495738313 
508	 476.956920351978 
509	 487.99928081302 
510	 500.496860315462 
511	 513.395921953001 
512	 525.376758222033 
513	 536.424256790134 
514	 547.559961451738 
515	 560.283754201972 
516	 574.197896252211 
517	 587.916887487715 
518	 600.399351453197 
519	 612.100441465149 
520	 625.321752733432 
521	 640.4712569102 
522	 655.445961182604 
523	 668.834394502226 
524	 681.960067564684 
525	 697.433039843242 
526	 712.840712572987 
527	 728.078488197593 
528	 743.209042894129 
529	 757.130268564443 
530	 771.376108090805 
531	 786.655980055361 
532	 802.469853681516 
533	 818.0093276613 
534	 832.481871797341 
535	 845.366433769192 
536	 861.261139720496 
537	 877.031557312869 
538	 889.618891082489 
539	 904.043035139238 
540	 919.058607108264 
541	 933.79101769306 
542	 948.602661201555 
543	 962.451649010033 
544	 975.897564533033 
545	 990.48523061873 
546	 1004.68091852236 
547	 1018.47659860352 
548	 1032.20900700101 
549	 1046.04642934254 
550	 1059.86685506469 
551	 1073.25788334014 
552	 1084.94438159879 
553	 1097.40185105213 
554	 1110.91044778302 
555	 1124.14823618544 
556	 1136.84989592339 
557	 1148.35749845289 
558	 1158.46789389029 
559	 1170.18976402551 
560	 1181.73889582314 
561	 1191.73103350343 
562	 1200.78684639245 
563	 1209.32652900144 
564	 1216.97976545963 
565	 1222.53289502113 
566	 1228.76656747375 
567	 1234.46847549553 
568	 1237.39278474538 
569	 1239.4120418962 
570	 1240.56047039131 
571	 1240.86198752305 
572	 1241.13068840766 
573	 1240.01166840138 
574	 1237.56604126705 
575	 1235.67330959371 
576	 1231.36763429793 
577	 1226.5635400998 
578	 1224.54602613132 
579	 1218.17441277573 
580	 1210.79109142998 
581	 1205.6861361032 
582	 1199.01855368239 
583	 1194.04272320031 
584	 1190.84851508636 
585	 1184.1432437661 
586	 1179.04725070876 
587	 1175.02980690941 
588	 1168.98794885362 
589	 1164.4804620788 
590	 1161.83672108135 
591	 1160.37982412607 
592	 1158.11468670985 
593	 1156.98923139581 
594	 1157.69427555624 
595	 1157.95417400981 
596	 1160.31895526114 
597	 1165.02171945382 
598	 1170.82820872979 
599	 1179.3405567737 
600	 1188.82624237064 
601	 1197.1235576846 
602	 1205.36990854106 
603	 1214.05277601935 
604	 1223.16271976895 
605	 1231.42321384042 
606	 1240.67777280384 
607	 1251.75026688281 
608	 1264.61168450532 
609	 1280.99826922404 
610	 1300.17268082315 
611	 1320.36110896612 
612	 1340.09813532126 
613	 1359.06531786708 
614	 1377.06145266757 
615	 1393.34987043185 
616	 1409.13491198768 
617	 1424.9389329144 
618	 1440.42655785466 
619	 1457.07699567931 
620	 1474.01422128299 
621	 1489.61887944733 
622	 1507.75619847548 
623	 1525.5909236037 
624	 1541.25883935918 
625	 1561.61023516 
626	 1580.54216143447 
627	 1596.00105029965 
628	 1612.70117343716 
629	 1629.56830497485 
630	 1646.28033098631 
631	 1662.58398730692 
632	 1677.36483009021 
633	 1690.35955789699 
634	 1701.91505714884 
635	 1713.70934352714 
636	 1726.91294551191 
637	 1740.85230238695 
638	 1750.77592862763 
639	 1761.82561304731 
640	 1774.82865919263 
641	 1787.670240669 
642	 1799.14894059121 
643	 1811.2854625581 
644	 1826.23610142351 
645	 1839.86747401506 
646	 1852.58696498545 
647	 1865.5786857783 
648	 1881.16857443582 
649	 1895.60947207667 
650	 1908.8561488992 
651	 1924.48452883989 
652	 1939.84673668674 
653	 1955.45580787265 
654	 1972.57149840868 
655	 1989.22406871147 
656	 2005.1606782394 
657	 2021.11017002507 
658	 2040.42700278071 
659	 2058.51011745265 
660	 2074.85816161321 
661	 2094.39087086769 
662	 2112.7835137213 
663	 2130.35984578953 
664	 2149.24288383517 
665	 2168.02133994317 
666	 2187.23653221141 
667	 2207.35644334602 
668	 2227.32246340854 
669	 2247.53508786831 
670	 2268.21082651337 
671	 2289.10621916913 
672	 2311.27232698677 
673	 2334.82710592398 
674	 2359.3106372811 
675	 2383.85147166663 
676	 2407.76742038463 
677	 2431.19403011532 
678	 2457.77196980126 
679	 2484.36680363209 
680	 2509.70131963702 
681	 2536.85494414656 
682	 2563.75106885378 
683	 2589.76986126392 
684	 2615.18059344542 
685	 2643.02070640487 
686	 2672.36714079246 
687	 2701.10667248043 
688	 2727.25578669681 
689	 2754.32824987737 
690	 2783.99314172672 
691	 2813.07000523293 
692	 2840.87897367228 
693	 2868.06157185755 
694	 2896.57940647791 
695	 2924.22025210314 
696	 2951.47937220672 
697	 2979.15365830798 
698	 3003.72691660901 
699	 3028.91531885136 
700	 3056.32709226343 
701	 3079.91673178289 
702	 3104.28004341218 
703	 3129.14684980758 
704	 3149.36699260488 
705	 3171.3104327829 
706	 3194.37346112697 
707	 3215.78956447191 
708	 3236.74799551158 
709	 3257.00437684553 
710	 3276.03068549207 
711	 3292.66867108538 
712	 3308.80101543864 
713	 3325.66900382955 
714	 3344.1049893998 
715	 3359.57904367849 
716	 3373.39630550819 
717	 3388.83616518281 
718	 3402.7862151739 
719	 3416.91687341032 
720	 3432.07373093147 
721	 3444.34296863608 
722	 3455.32268678893 
723	 3466.19096527825 
724	 3477.65655065982 
725	 3489.91327010151 
726	 3502.27165945707 
727	 3513.77300685715 
728	 3525.98929565526 
729	 3538.67366983514 
730	 3551.17578687421 
731	 3562.18489417367 
732	 3574.72040793463 
733	 3589.48537352297 
734	 3604.22365134777 
735	 3618.06236306539 
736	 3632.32487534887 
737	 3648.87340169254 
738	 3661.49566165088 
739	 3672.38172896197 
740	 3684.02077221835 
741	 3694.75253031877 
742	 3704.61681314787 
743	 3714.43792696748 
744	 3726.4323855982 
745	 3735.90154914216 
746	 3743.16284317798 
747	 3750.67267678197 
748	 3757.96699946572 
749	 3765.18024984426 
750	 3772.26055389039 
751	 3778.42139602358 
752	 3783.97020858168 
753	 3788.85224892953 
754	 3792.45237680454 
755	 3796.0855064911 
756	 3799.30749474859 
757	 3800.94338383223 
758	 3800.94223530949 
759	 3798.91821923102 
760	 3795.93132697263 
761	 3797.96265108445 
762	 3799.72886120741 
763	 3799.69737357675 
764	 3800.71425449802 
765	 3802.63515513598 
766	 3803.72634541977 
767	 3801.85532201307 
768	 3798.86254873828 
769	 3795.97224882074 
770	 3793.63291721708 
771	 3790.40775294006 
772	 3786.81588222675 
773	 3783.00068742867 
774	 3778.74039770205 
775	 3774.47307087985 
776	 3769.46194092603 
777	 3763.03228959524 
778	 3758.32230488088 
779	 3752.88072635653 
780	 3745.05202196318 
781	 3736.23884800943 
782	 3728.7759483247 
783	 3721.77945517962 
784	 3711.56492703065 
785	 3702.06350960337 
786	 3693.1411832327 
787	 3683.50121073794 
788	 3671.94647635795 
789	 3660.49677122086 
790	 3650.12154387426 
791	 3639.15973751571 
792	 3629.15266117218 
793	 3618.28947424098 
794	 3602.87343516737 
795	 3589.15568571383 
796	 3576.76517775475 
797	 3564.15840782257 
798	 3551.77207499496 
799	 3539.46803092875 
800	 3526.8341911736 
801	 3512.85544790797 
802	 3499.56475286524 
803	 3486.98947299671 
804	 3474.26450998756 
805	 3461.81448074898 
806	 3449.23752291773 
807	 3435.93232431964 
808	 3420.8166343055 
809	 3406.1463264827 
810	 3391.98430261266 
811	 3375.95780999442 
812	 3360.53483349915 
813	 3346.02195218432 
814	 3331.8818225189 
815	 3317.11550061989 
816	 3301.33946955342 
817	 3284.98905668375 
818	 3270.22511423962 
819	 3255.46008030654 
820	 3239.99643509535 
821	 3223.62829039866 
822	 3205.71505674397 
823	 3187.82900850424 
824	 3171.36648874968 
825	 3154.5541016503 
826	 3138.9756319256 
827	 3124.80827630272 
828	 3110.17641886016 
829	 3094.36592252556 
830	 3076.87560137034 
831	 3057.43278554039 
832	 3035.63119985607 
833	 3013.5027651725 
834	 2992.98694145405 
835	 2975.21903089649 
836	 2958.3499273647 
837	 2942.23143729829 
838	 2928.10826618067 
839	 2918.5679292085 
840	 2910.10538352182 
841	 2898.66960139322 
842	 2885.91808339825 
843	 2871.65547166638 
844	 2856.11500648899 
845	 2840.25607224208 
846	 2824.14972669945 
847	 2807.69879951704 
848	 2790.79043506164 
849	 2774.38097480785 
850	 2758.25497880305 
851	 2741.89965148198 
852	 2724.34251503631 
853	 2707.04847342852 
854	 2690.21283066799 
855	 2673.14118807535 
856	 2657.07968045599 
857	 2641.31712278021 
858	 2624.57686015554 
859	 2604.95188702618 
860	 2585.98270014024 
861	 2569.18993152532 
862	 2553.48437763447 
863	 2537.53584385407 
864	 2520.63173095361 
865	 2502.75977109326 
866	 2486.7362018724 
867	 2468.75608242025 
868	 2448.1312107519 
869	 2431.64713546308 
870	 2415.53267317657 
871	 2399.53895924427 
872	 2384.7210522517 
873	 2368.10319325182 
874	 2350.44611191069 
875	 2332.63163016178 
876	 2313.92397071163 
877	 2295.20986872952 
878	 2277.16588080255 
879	 2260.18482708461 
880	 2240.28112589599 
881	 2219.3180537741 
882	 2199.68144512321 
883	 2179.86054852147 
884	 2159.80286734898 
885	 2138.93053190934 
886	 2115.98802371136 
887	 2092.16992245353 
888	 2068.18518743005 
889	 2044.67569907797 
890	 2022.53983797393 
891	 2001.20878290279 
892	 1980.26132007445 
893	 1959.49561766413 
894	 1941.48322823117 
895	 1924.81599688305 
896	 1907.07782775248 
897	 1891.72998000982 
898	 1877.63633810211 
899	 1864.14203991094 
900	 1852.30927558712 
901	 1843.34122797504 
902	 1836.40170924851 
903	 1829.74421613436 
904	 1824.60096205559 
905	 1821.15022900838 
906	 1818.12101567624 
907	 1810.98662711357 
908	 1802.96807376512 
909	 1794.0465101611 
910	 1782.62406198642 
911	 1771.03639430052 
912	 1759.42166894132 
913	 1747.83355026079 
914	 1737.54726078743 
915	 1724.84384396373 
916	 1710.44294051617 
917	 1697.92498577426 
918	 1684.48026332039 
919	 1671.06633233721 
920	 1658.49670853138 
921	 1645.51122589923 
922	 1630.33995764482 
923	 1614.81120092467 
924	 1603.1402672101 
925	 1590.63617868328 
926	 1577.18374079121 
927	 1563.44978585624 
928	 1549.86465904188 
929	 1534.63987056018 
930	 1518.11990048364 
931	 1502.2107303931 
932	 1485.85445756627 
933	 1470.12379869942 
934	 1455.73055985167 
935	 1441.25206076246 
936	 1427.39474954836 
937	 1413.64674453585 
938	 1398.80754448502 
939	 1385.57153866201 
940	 1371.3371692339 
941	 1354.80736924903 
942	 1341.00836497605 
943	 1326.84106151296 
944	 1312.19130792481 
945	 1298.63994608038 
946	 1284.12123664066 
947	 1269.30614036673 
948	 1255.2647582732 
949	 1243.36469695354 
950	 1229.2398085893 
951	 1213.96788029658 
952	 1201.19728842508 
953	 1187.18788281321 
954	 1174.00738271975 
955	 1162.00837266727 
956	 1146.0729656672 
957	 1131.46980216193 
958	 1118.24006849324 
959	 1104.36911242113 
960	 1090.08609061262 
961	 1077.22627055645 
962	 1065.39815130088 
963	 1050.29123743632 
964	 1035.28275363572 
965	 1021.17882757973 
966	 1660.79913400952 
967	 1680.70806296881 
968	 1703.31799828832 
969	 1727.07629493119 
970	 1753.6511256971 
971	 1778.82567212257 
972	 1804.00551985132 
973	 1831.43342721432 
974	 1859.01633837345 
975	 1888.11468816594 
976	 1920.61850292124 
977	 1952.35446679001 
978	 1979.15126647965 
979	 2006.57574320834 
980	 2030.74048032959 
981	 2053.64878729057 
982	 2078.48043748923 
983	 2098.85905390147 
984	 2118.81199925604 
985	 2139.30193186506 
986	 2158.89109098069 
987	 2178.74875490923 
988	 2197.97802417965 
989	 2217.50628086572 
990	 2232.45937196726 
991	 2242.28167636301 
992	 2255.63222668286 
993	 2266.71371433484 
994	 2282.24014127411 
995	 2301.03951917088 
996	 2318.52571884093 
997	 2332.72956493016 
998	 2348.47697382581 
999	 2363.08040452764 
1000	 2379.43595881776 
1001	 2399.68489801942 
1002	 2413.55154384418 
1003	 2430.49447432258 
1004	 2450.94956148341 
1005	 2468.71501849571 
1006	 2487.11455435374 
1007	 2506.28101619159 
1008	 2525.23529053551 
1009	 2539.86614827152 
1010	 2559.31006929438 
1011	 2576.72778065934 
1012	 2594.44762570812 
1013	 2615.22041948712 
1014	 2632.67466213931 
1015	 2650.26725975001 
1016	 2666.85425862457 
1017	 2679.9609159588 
1018	 2696.20204429804 
1019	 2715.00941527213 
1020	 2735.52200357901 
1021	 2755.63695600655 
1022	 2769.70594177401 
1023	 2786.10958171693 
1024	 2800.98626565977 
1025	 2817.12638791043 
1026	 2835.29776018147 
1027	 2857.94985945335 
1028	 2876.23941479198 
1029	 2892.73933898692 
1030	 2910.19772781383 
1031	 2923.75763035876 
1032	 2943.83854383808 
1033	 2965.30756161585 
1034	 2978.5048618975 
1035	 2995.1540818712 
1036	 3010.33708986481 
1037	 3021.25512835585 
1038	 3036.18084094518 
1039	 3052.2021941329 
1040	 3069.8099426429 
1041	 3090.39873988747 
1042	 3108.07244222225 
1043	 3125.72567770455 
1044	 3143.41550489507 
1045	 3160.15907378771 
1046	 3174.65579260842 
1047	 3189.575517629 
1048	 3208.38595583638 
1049	 3227.19378096374 
1050	 3244.43113152833 
1051	 3263.76058573559 
1052	 3280.70706835218 
1053	 3295.89017019886 
1054	 3312.35052270501 
1055	 3326.71974188669 
1056	 3342.5167744062 
1057	 3355.84197978372 
1058	 3365.17520138205 
1059	 3377.36792781097 
1060	 3388.62365178217 
1061	 3402.25552255015 
1062	 3418.04299520352 
1063	 3434.58085224958 
1064	 3451.82499785154 
1065	 3468.62169109335 
1066	 3482.5792669458 
1067	 3497.18706676272 
1068	 3510.2453858378 
1069	 3524.07505429902 
1070	 3540.99301697067 
1071	 3558.29002851491 
1072	 3575.02661710202 
1073	 3591.8301437358 
1074	 3610.23314789629 
1075	 3630.14722112589 
1076	 3647.05366196817 
1077	 3663.38007996133 
1078	 3681.56794432083 
1079	 3698.66454612216 
1080	 3715.39760476192 
1081	 3731.86974993047 
1082	 3751.67901655949 
1083	 3773.34950583344 
1084	 3792.03286774275 
1085	 3811.58686326287 
1086	 3837.49033812725 
1087	 3857.578591502 
1088	 3877.97523241423 
1089	 3904.68007348834 
1090	 3929.70189396419 
1091	 3955.79689810146 
1092	 3982.98686361028 
1093	 4009.56075525931 
1094	 4035.07321178261 
1095	 4063.47752762988 
1096	 4094.15465700972 
1097	 4123.47396068461 
1098	 4152.09178737932 
1099	 4184.20722295019 
1100	 4215.9323310119 
1101	 4249.96472522696 
1102	 4291.07488604058 
1103	 4327.79880414246 
1104	 4361.7526747868 
1105	 4397.12500963197 
1106	 4433.80130294144 
1107	 4470.43460897456 
1108	 4509.79272700691 
1109	 4549.12449394513 
1110	 4587.06012308521 
1111	 4622.8167072172 
1112	 4661.42592763997 
1113	 4700.59457978819 
1114	 4740.25264440949 
1115	 4782.25518015949 
1116	 4821.99190431883 
1117	 4863.34040841232 
1118	 4899.87359639875 
1119	 4934.83926127005 
1120	 4966.14112654202 
1121	 4993.09448517476 
1122	 5018.64914586799 
1123	 5041.42630819473 
1124	 5062.71363386235 
1125	 5082.71998937404 
1126	 5099.61325208533 
1127	 5114.74858337705 
1128	 5127.66697089148 
1129	 5139.69472636932 
1130	 5147.4843030328 
1131	 5160.55653343875 
1132	 5172.60081850278 
1133	 5190.22345826683 
1134	 5210.87079849226 
1135	 5235.50863569979 
1136	 5264.56752980589 
1137	 5295.1117850663 
1138	 5330.46017301225 
1139	 5365.05183087455 
1140	 5403.7101389421 
1141	 5437.94352248167 
1142	 5474.45998664697 
1143	 5504.07372763109 
1144	 5532.24733684659 
1145	 5551.80537991173 
1146	 5566.74091592826 
1147	 5573.12340922321 
1148	 5571.75044253054 
1149	 5563.49634213132 
1150	 5544.16658035032 
1151	 5514.91084157446 
1152	 5480.26247574939 
1153	 5433.90842456743 
1154	 5387.96713181378 
1155	 5334.25605509207 
1156	 5285.19115962455 
1157	 5232.80083520223 
1158	 5184.43983335156 
1159	 5139.6907886769 
1160	 5093.64851982995 
1161	 5046.2710641256 
1162	 5002.78634018688 
1163	 4960.08938553496 
1164	 4920.5277397689 
1165	 4884.33542580541 
1166	 4850.21043556978 
1167	 4817.31251580672 
1168	 4787.55105681715 
1169	 4760.53224448812 
1170	 4738.38807658174 
1171	 4726.61668428523 
1172	 4717.75727538637 
1173	 4727.25325649204 
1174	 4746.30322178679 
1175	 4783.0230764124 
1176	 4833.73458697969 
1177	 4899.96592575199 
1178	 4982.44004933732 
1179	 5077.49366800327 
1180	 5189.54861059139 
1181	 5309.63983775333 
1182	 5446.07206160027 
1183	 5584.44285399053 
1184	 5741.22072893248 
1185	 5884.77454046024 
1186	 6032.17117209899 
1187	 6169.71278895488 
1188	 6300.98891383093 
1189	 6423.65302849321 
1190	 6540.6275016868 
1191	 6649.47816449139 
1192	 6747.2598015865 
1193	 6831.89258135488 
1194	 6902.83013590304 
1195	 6967.95571103509 
1196	 7030.45348560725 
1197	 7082.7898097803 
1198	 7138.04599217633 
1199	 7192.46789578332 
1200	 7244.5268200142 
1201	 7292.12129780576 
1202	 7342.56893760202 
1203	 7392.23526442072 
1204	 7443.54725774321 
1205	 7497.06944089692 
1206	 7549.13421893612 
1207	 7602.27190905378 
1208	 7653.02521797106 
1209	 7701.43927091906 
1210	 7750.86070359746 
1211	 7800.42944161584 
1212	 7849.26581409898 
1213	 7896.53302292799 
1214	 7938.24153594984 
1215	 7974.20879019529 
1216	 8007.44143270894 
1217	 8040.19840726404 
1218	 8075.45519711963 
1219	 8104.9156380613 
1220	 8130.26818552855 
1221	 8155.12722541381 
1222	 8176.19198558946 
1223	 8194.64933393678 
1224	 8212.1643056824 
1225	 8228.62811367277 
1226	 8239.81850545496 
1227	 8253.85326536556 
1228	 8270.05482009364 
1229	 8283.08914297545 
1230	 8293.19261112931 
1231	 8305.53399904872 
1232	 8316.74578772529 
1233	 8330.77122097084 
1234	 8349.33056263881 
1235	 8364.11000383048 
1236	 8378.03574637076 
1237	 8391.74178453089 
1238	 8403.97737590407 
1239	 8415.74016291901 
1240	 8428.49971627702 
1241	 8442.26930641306 
1242	 8456.29898437564 
1243	 8471.6722216047 
1244	 8488.2689807703 
1245	 8503.93381277927 
1246	 8517.47887734088 
1247	 8531.46082026953 
1248	 8547.32223352954 
1249	 8561.62669496469 
1250	 8575.9737259677 
1251	 8591.0409552506 
1252	 8605.72530291758 
1253	 8617.94391005412 
1254	 8633.05633372818 
1255	 8650.5135278386 
1256	 8666.79037105504 
1257	 8684.06630159459 
1258	 8701.30312807075 
1259	 8717.67359560506 
1260	 8734.36092735445 
1261	 8751.10138334917 
1262	 8769.11071887528 
1263	 8786.01995737382 
1264	 8801.59180297283 
1265	 8816.52152455121 
1266	 8828.71100191475 
1267	 8841.53740203494 
1268	 8854.02580249862 
1269	 8863.29108937475 
1270	 8872.16148369699 
1271	 8876.03856935099 
1272	 8875.58578209116 
1273	 8874.59612899222 
1274	 8870.42027887501 
1275	 8868.29000694633 
1276	 8867.21392928939 
1277	 8861.51742912708 
1278	 8858.01256180464 
1279	 8850.94321333096 
1280	 8838.49263215867 
1281	 8826.6559315079 
1282	 8816.58877119658 
1283	 8801.28968409908 
1284	 8782.01152796183 
1285	 8765.53881226376 
1286	 8742.25006802265 
1287	 8726.37080076253 
1288	 8715.66302799595 
1289	 8706.16506029304 
1290	 8693.49059717021 
1291	 8685.19303813335 
1292	 8672.54758274592 
1293	 8657.42432542203 
1294	 8648.18956773915 
1295	 8639.3577936278 
1296	 8629.7901196815 
1297	 8621.01707770994 
1298	 8610.43183309518 
1299	 8601.18998334253 
1300	 8598.63907299325 
1301	 8599.34554961586 
1302	 8599.66105418523 
1303	 8602.36946607843 
1304	 8603.61766149511 
1305	 8604.29670429306 
1306	 8611.8254094388 
1307	 8621.83303465599 
1308	 8629.70329949075 
1309	 8634.14570471267 
1310	 8635.8331138253 
1311	 8636.4564831441 
1312	 8639.36798736558 
1313	 8643.69509100977 
1314	 8649.34391152153 
1315	 8656.00624147589 
1316	 8664.29374393094 
1317	 8673.75577995193 
1318	 8683.9731835794 
1319	 8696.72456835926 
1320	 8707.99804944522 
1321	 8717.92268011926 
1322	 8727.26663315359 
1323	 8734.4731554476 
1324	 8742.52635713814 
1325	 8751.64139466842 
1326	 8763.03394773108 
1327	 8773.54463970742 
1328	 8780.014978086 
1329	 8787.5128218071 
1330	 8786.57950836004 
1331	 8781.73596461696 
1332	 8774.5328100683 
1333	 8756.18026042117 
1334	 8729.10027330633 
1335	 8690.83125956875 
1336	 8640.60788977036 
1337	 8577.54012214072 
1338	 8505.90917177023 
1339	 8422.62343660982 
1340	 8332.06302937707 
1341	 8236.13231879477 
1342	 8133.56815719029 
1343	 8025.74377994673 
1344	 7920.3085810821 
1345	 7820.20215998935 
1346	 7722.09880614962 
1347	 7638.24891222315 
1348	 7564.91425078886 
1349	 7502.68873225509 
1350	 7454.85671661823 
1351	 7412.03133027782 
1352	 7382.89585009599 
1353	 7351.03433634107 
1354	 7323.95493607097 
1355	 7294.95319838321 
1356	 7265.72565759667 
1357	 7231.78621784201 
1358	 7190.20049239448 
1359	 7146.52360788251 
1360	 7093.59890348604 
1361	 7041.82054312209 
1362	 6988.47414589079 
1363	 6933.63406593335 
1364	 6887.74726887395 
1365	 6845.91542208104 
1366	 6816.03176365002 
1367	 6800.50212813758 
1368	 6795.53658659965 
1369	 6798.82347328226 
1370	 6809.14184998906 
1371	 6821.47681491868 
1372	 6836.10169543399 
1373	 6853.41505501777 
1374	 6867.71872984318 
1375	 6878.33254615425 
1376	 6880.12296522346 
1377	 6874.43775642804 
1378	 6862.8716211694 
1379	 6847.49046406034 
1380	 6834.48982159002 
1381	 6830.10296314039 
1382	 6832.35395932922 
1383	 6840.01248196785 
1384	 6857.63667813653 
1385	 6882.27201644068 
1386	 6914.07633241548 
1387	 6954.26376790039 
1388	 7001.88695536238 
1389	 7050.58528366412 
1390	 7099.0549924147 
1391	 7150.16800255651 
1392	 7200.12514591111 
1393	 7251.64357680143 
1394	 7296.85388929177 
1395	 7340.23290994262 
1396	 7380.45937920611 
1397	 7412.27866935851 
1398	 7444.29103215212 
1399	 7476.28492506177 
1400	 7506.01384097625 
1401	 7537.29380819666 
1402	 7569.76453792947 
1403	 7603.04729670109 
1404	 7637.29226949649 
1405	 7675.02824470289 
1406	 7717.51218371243 
1407	 7763.74157506554 
1408	 7815.33833913933 
1409	 7871.0232814612 
1410	 7926.13749282768 
1411	 7984.34710407721 
1412	 8043.37646043548 
1413	 8101.54560466164 
1414	 8161.40637156845 
1415	 8220.150906497 
1416	 8277.58073984414 
1417	 8332.87222156378 
1418	 8386.32321507147 
1419	 8438.48295329733 
1420	 8491.39542723845 
1421	 8544.17691152681 
1422	 8594.04561771488 
1423	 8642.93653323772 
1424	 8686.07381939927 
1425	 8725.91896848627 
1426	 8764.15501724875 
1427	 8795.13832243498 
1428	 8821.40852778223 
1429	 8841.52659295152 
1430	 8855.3348016605 
1431	 8865.30282768893 
1432	 8867.06012837061 
1433	 8857.43324939366 
1434	 8841.66484586698 
1435	 8821.09755969283 
1436	 8800.233884544 
1437	 8783.00168778073 
1438	 8765.17394151096 
1439	 8745.88204869327 
1440	 8727.69804600766 
1441	 8710.99023587719 
1442	 8696.686547747 
1443	 8689.73207182673 
1444	 8687.39297094074 
1445	 8688.65189250985 
1446	 8694.67476863372 
1447	 8705.18992101595 
1448	 8720.28582996664 
1449	 8737.57248142175 
1450	 8761.37478227822 
1451	 8782.6261743682 
1452	 8804.75161654495 
1453	 8826.57916898 
1454	 8848.31984872839 
1455	 8868.48172821095 
1456	 8889.26107083381 
1457	 8911.56457420554 
1458	 8930.69141165565 
1459	 8951.63613808261 
1460	 8973.71157540093 
1461	 8993.32829171809 
1462	 9014.63117900199 
1463	 9037.89768925505 
1464	 9063.98717264976 
1465	 9091.79871230243 
1466	 9121.08151225406 
1467	 9150.11361846695 
1468	 9175.31168706765 
1469	 9202.13575213366 
1470	 9228.85674897729 
1471	 9253.86370606791 
1472	 9279.93827957849 
1473	 9302.92153812831 
1474	 9326.84069702121 
1475	 9352.26493518792 
1476	 9376.14139445002 
1477	 9399.46291301485 
1478	 9420.68947583887 
1479	 9438.61298713059 
1480	 9455.31292037079 
1481	 9473.68487350864 
1482	 9491.00126040154 
1483	 9508.84461966944 
1484	 9528.88716149591 
1485	 9547.99666805658 
1486	 9566.05240372465 
1487	 9584.08163417438 
1488	 9604.5482349618 
1489	 9623.35403179744 
1490	 9640.25169518551 
1491	 9657.7892719258 
1492	 9671.33573052 
1493	 9684.92615163771 
1494	 9699.86847591835 
1495	 9715.78490784054 
1496	 9730.8782317335 
1497	 9744.75883481442 
1498	 9761.37392242867 
1499	 9776.5781081421 
1500	 9792.6923739316 
1501	 9809.7492763546 
1502	 9821.34824325854 
1503	 9829.35600298159 
1504	 9836.83790916381 
1505	 9840.58243644186 
1506	 9843.93140240093 
1507	 9849.95786811405 
1508	 9853.90166824006 
1509	 9857.66574292302 
1510	 9858.98788501177 
1511	 9855.32026957912 
1512	 9848.728949985 
1513	 9838.60418621094 
1514	 9826.73657668845 
1515	 9813.72574667687 
1516	 9799.59276279561 
1517	 9784.75948366976 
1518	 9771.57668277194 
1519	 9759.83352593555 
1520	 9749.5055942202 
1521	 9738.93426734291 
1522	 9722.51406620637 
1523	 9706.11002924987 
1524	 9688.48934418818 
1525	 9669.31161466952 
1526	 9656.46824718273 
1527	 9645.10978712567 
1528	 9632.87536404888 
1529	 9622.05087173668 
1530	 9610.87705130974 
1531	 9597.06209650904 
1532	 9582.63389799037 
1533	 9566.30844276614 
1534	 9548.67824425034 
1535	 9533.56107782656 
1536	 9519.09523627511 
1537	 9507.10619579025 
1538	 9494.76235082404 
1539	 9480.21445201052 
1540	 9465.1566772097 
1541	 9449.82955101259 
1542	 9434.90406420198 
1543	 9420.09933640044 
1544	 9407.19944989701 
1545	 9395.36236037208 
1546	 9384.51597956155 
1547	 9373.21050343539 
1548	 9359.93497453392 
1549	 9345.39536468065 
1550	 9332.89970177309 
1551	 9322.07468634496 
1552	 9311.1278717789 
1553	 9302.56666250199 
1554	 9293.62405761711 
1555	 9282.96643547956 
1556	 9272.61565789393 
1557	 9263.32592085623 
1558	 9254.53116568171 
1559	 9247.32476646908 
1560	 9239.7340600785 
1561	 9228.47257573331 
1562	 9215.0719216881 
1563	 9199.97796866309 
1564	 9186.03352460242 
1565	 9170.23453773028 
1566	 9151.06132685912 
1567	 9133.62046758186 
1568	 9112.07595255676 
1569	 9091.23149413236 
1570	 9074.54851307923 
1571	 9053.29620914026 
1572	 9033.24591389118 
1573	 9013.35442520524 
1574	 8988.49727973519 
1575	 8963.83374877016 
1576	 8937.36761636562 
1577	 8910.32117051508 
1578	 8884.86259621559 
1579	 8857.78556910611 
1580	 8831.08720906036 
1581	 8801.20600823291 
1582	 8768.9639907755 
1583	 8737.88937219497 
1584	 8702.68922353265 
1585	 8668.02379175782 
1586	 8634.68480761272 
1587	 8598.84938388885 
1588	 8562.8796251586 
1589	 8523.53838493932 
1590	 8481.62029895732 
1591	 8436.73249361025 
1592	 8389.64554113151 
1593	 8345.28925278292 
1594	 8297.57379612277 
1595	 8245.87331294436 
1596	 8192.96028245873 
1597	 8133.43682150259 
1598	 8071.18033480565 
1599	 8010.57238212576 
1600	 7948.13098195082 
1601	 7885.3386856547 
1602	 7820.92839520282 
1603	 7754.50635147967 
1604	 7687.69713025261 
1605	 7621.86957299294 
1606	 7560.78424406057 
1607	 7500.28127916416 
1608	 7440.1015272506 
1609	 7382.69609293719 
1610	 7323.19558146533 
1611	 7268.55813642766 
1612	 7220.90170691497 
1613	 7175.14936518726 
1614	 7136.91289408736 
1615	 7102.5411379532 
1616	 7069.90236823532 
1617	 7041.00491784161 
1618	 7015.74944221524 
1619	 6993.44061090058 
1620	 6973.38574942656 
1621	 6954.6555319842 
1622	 6934.9574164093 
1623	 6915.659386738 
1624	 6896.15507055388 
1625	 6875.39980356333 
1626	 6856.14173933694 
1627	 6832.89187736154 
1628	 6805.74306552476 
1629	 6777.28894425847 
1630	 6740.00089803925 
1631	 6700.75703523687 
1632	 6663.07525292707 
1633	 6623.81131113495 
1634	 6587.86678733669 
1635	 6544.11009917269 
1636	 6492.89072156896 
1637	 6441.12172232646 
1638	 6384.90056273346 
1639	 6328.31174554543 
1640	 6273.85249240132 
1641	 6211.61036924716 
1642	 6146.65860524059 
1643	 6074.73709296587 
1644	 5996.17880374558 
1645	 5912.47735985687 
1646	 5823.94213532183 
1647	 5729.08757824268 
1648	 5630.54579262106 
1649	 5520.78569211953 
1650	 5406.15780541179 
1651	 5276.4557212425 
1652	 5135.00695112926 
1653	 4982.24850690386 
1654	 4817.01272284405 
1655	 4641.82718804226 
1656	 4454.05752439206 
1657	 4259.05553655043 
1658	 4053.01195881561 
1659	 3840.90735986971 
1660	 3615.4176024613 
1661	 3396.06543769253 
1662	 3166.04019423046 
1663	 2953.81818336647 
1664	 2745.72749035068 
1665	 2553.84835466831 
1666	 2370.19119098655 
1667	 2208.33363330569 
1668	 2060.7396174039 
1669	 1932.76121287854 
1670	 1826.22799946287 
1671	 1731.11369257261 
1672	 1653.25764578975 
1673	 1584.50554682396 
1674	 1532.12807495188 
1675	 1481.07971534999 
1676	 1439.43683191569 
1677	 1401.2804301768 
1678	 1366.04729899418 
1679	 1342.97182796069 
1680	 1326.80498134117 
1681	 1322.80293227299 
1682	 1328.30345582616 
1683	 1347.01999569694 
1684	 1376.38954416662 
1685	 1423.96300248037 
1686	 1483.35328821361 
1687	 1562.06550560646 
1688	 1636.83870003516 
1689	 1722.71158847732 
1690	 1798.27993382301 
1691	 1875.03889300536 
1692	 1936.74946466319 
1693	 1991.13003199815 
1694	 2029.95272106834 
1695	 2057.86041101076 
1696	 2066.91680305897 
1697	 2059.39934681341 
1698	 2037.47624337037 
1699	 1992.31619960104 
1700	 1944.3803388988 
1701	 1883.20480708086 
1702	 1819.80669778284 
1703	 1747.79743093907 
1704	 1677.52989474092 
1705	 1602.46218886685 
1706	 1529.93233108551 
1707	 1458.14270412528 
1708	 1387.02190430228 
1709	 1314.05186083176 
1710	 1246.85531682358 
1711	 1179.95225394794 
1712	 1121.74276940383 
1713	 1067.99189642842 
1714	 1022.67379918758 
1715	 984.717136724115 
1716	 953.05917169391 
1717	 928.58637250887 
1718	 910.411385161927 
1719	 898.181526335862 
1720	 893.829373060381 
1721	 896.557668029737 
1722	 906.351737012048 
1723	 923.243185032758 
1724	 947.895801875228 
1725	 980.42441762168 
1726	 1018.93789729361 
1727	 1063.20963920895 
1728	 1111.05825401446 
1729	 1161.73361962537 
1730	 1217.10123219351 
1731	 1275.37071790115 
1732	 1336.58222839616 
1733	 1396.64081523977 
1734	 1459.09137266168 
1735	 1517.72039411162 
1736	 1577.97952104903 
1737	 1630.40093821163 
1738	 1679.7373829975 
1739	 1720.3804283507 
1740	 1752.3287877869 
1741	 1780.8798442553 
1742	 1803.27225355524 
1743	 1820.90112742204 
1744	 1833.15026174191 
1745	 1842.23935467035 
1746	 1844.1814936101 
1747	 1847.5283781207 
1748	 1846.98100673954 
1749	 1852.09195500945 
1750	 1855.72271459199 
1751	 1868.02293346825 
1752	 1884.75843946396 
1753	 1908.94564843104 
1754	 1940.63005786359 
1755	 1975.69695909212 
1756	 1334.58054153365 
1757	 1380.23317928027 
1758	 1428.4378846835 
1759	 1480.43879111164 
1760	 1547.64071285971 
1761	 1604.67695971011 
1762	 1648.20252200769 
1763	 1697.77442210532 
1764	 1748.13885120172 
1765	 1789.68790734158 
1766	 1842.74576627178 
1767	 1918.73050503706 
1768	 1967.54562399087 
1769	 1996.69438245271 
1770	 2044.98975635736 
1771	 2085.42727405282 
1772	 2112.17640808452 
1773	 2144.94265592123 
1774	 2183.86422231621 
1775	 2212.05833275503 
1776	 2231.41598467863 
1777	 2256.84672177096 
1778	 2281.84674406008 
1779	 2306.10424719598 
1780	 2337.95199020943 
1781	 2370.5892511159 
1782	 2389.06537354222 
1783	 2406.35510150772 
1784	 2423.39981472685 
1785	 2436.43176061436 
1786	 2439.93703835018 
1787	 2452.32532894493 
1788	 2470.21262915969 
1789	 2476.64760460001 
1790	 2477.93159515631 
1791	 2484.9463939584 
1792	 2481.46270715288 
1793	 2476.99115706679 
1794	 2479.90109213505 
1795	 2489.37416082471 
1796	 2487.1005436573 
1797	 2492.08216479615 
1798	 2504.19496745104 
1799	 2496.87434725055 
1800	 2494.41076009693 
1801	 2495.03766780784 
1802	 2483.62059492526 
1803	 2482.3893905265 
1804	 2489.32254704656 
1805	 2491.43825530315 
1806	 2489.33750711255 
1807	 2499.9398441839 
1808	 2505.75770662335 
1809	 2512.96824513404 
1810	 2538.49046300744 
1811	 2560.92081693291 
1812	 2577.45046455102 
1813	 2588.92450703494 
1814	 2612.35727569732 
1815	 2639.01151246325 
1816	 2660.87863219142 
1817	 2690.1654264489 
1818	 2718.83416960055 
1819	 2734.46650487555 
1820	 2746.98334481826 
1821	 2775.75917191688 
1822	 2817.40217203037 
1823	 2854.25949335472 
1824	 2900.04174686648 
1825	 2940.04423158277 
1826	 2979.07458749864 
1827	 3014.87234562347 
1828	 3048.51219259395 
1829	 3079.75571465202 
1830	 3114.7165974979 
1831	 3147.26231424066 
1832	 3182.99249068459 
1833	 3223.20771856026 
1834	 3261.86494114563 
1835	 3301.73531306898 
1836	 3338.75311018368 
1837	 3370.38521190133 
1838	 3408.88839832138 
1839	 3447.9482272707 
1840	 3492.17431490531 
1841	 3531.69809551087 
1842	 3580.16947740475 
1843	 3616.46418514279 
1844	 3641.97354105458 
1845	 3670.39346742662 
1846	 3702.46363417623 
1847	 3722.8547076006 
1848	 3732.54016287082 
1849	 3746.11652626499 
1850	 3757.16405350593 
1851	 3768.67365000014 
1852	 3788.7047398757 
1853	 3820.9597132698 
1854	 3846.53255919022 
1855	 3875.61966963271 
1856	 3900.13421605889 
1857	 3927.63843691765 
1858	 3945.30182008019 
1859	 3958.7749614924 
1860	 3955.76579236135 
1861	 3937.06458359561 
1862	 3930.14803668341 
1863	 3920.10530984389 
1864	 3904.19533021917 
1865	 3898.41788412205 
1866	 3895.88655046981 
1867	 3892.26867563948 
1868	 3892.4619177823 
1869	 3889.49783079751 
1870	 3896.26672212889 
1871	 3915.2806933462 
1872	 3929.59065666552 
1873	 3953.8290868055 
1874	 3967.98773304221 
1875	 3965.51165067804 
1876	 3961.82720944203 
1877	 3953.87184288552 
1878	 3938.70870938317 
1879	 3924.69081713763 
1880	 3911.02648600392 
1881	 3876.8916957727 
1882	 3830.41817761351 
1883	 3776.41348054053 
1884	 3697.77982020797 
1885	 3616.66071392659 
1886	 3542.52656845017 
1887	 3465.31195631337 
1888	 3382.59729858435 
1889	 3296.44120432642 
1890	 3213.89955720906 
1891	 3119.96194667649 
1892	 3015.8311683003 
1893	 2923.9413157441 
1894	 2832.60188319458 
1895	 2760.18899114644 
1896	 2704.56990869898 
1897	 2653.70479350382 
1898	 2617.5915429188 
1899	 2586.01068944048 
1900	 2557.16987497383 
1901	 2540.65251661416 
1902	 2539.57908271622 
1903	 2548.16855632473 
1904	 2573.16945461835 
1905	 2587.11692752808 
1906	 2601.85622223582 
1907	 2626.870359825 
1908	 2651.6366055807 
1909	 2682.15511349352 
1910	 2709.63139421665 
1911	 2739.25497967156 
1912	 2767.98123647166 
1913	 2793.14531543822 
1914	 2816.96229323121 
1915	 2856.43512860178 
1916	 2886.05148906834 
1917	 2928.64726563076 
1918	 2977.65843607144 
1919	 3022.55968963797 
1920	 3068.0722444669 
1921	 3118.44143326207 
1922	 3176.06688096434 
1923	 3222.05363123179 
1924	 3266.26984768323 
1925	 3308.42823652992 
1926	 3339.69917219835 
1927	 3372.34799132312 
1928	 3415.29030560325 
1929	 3459.47040419648 
1930	 3496.20711432314 
1931	 3530.04046815835 
1932	 3562.95320268363 
1933	 3591.28382159748 
1934	 3619.97847024589 
1935	 3652.19927054284 
1936	 3676.1087422705 
1937	 3695.31060240923 
1938	 3712.1423337977 
1939	 3721.98312220275 
1940	 3734.3432860281 
1941	 3740.93265366302 
1942	 3739.54700481329 
1943	 3749.10141946389 
1944	 3757.09532800488 
1945	 3770.59702712488 
1946	 3799.91420773299 
1947	 3813.95868766056 
1948	 3823.30238997935 
1949	 3831.45620055256 
1950	 3830.55551348878 
1951	 3833.13828659634 
1952	 3834.65656089793 
1953	 3836.71609487867 
1954	 3845.01278564396 
1955	 3855.55160908272 
1956	 3868.74190255684 
1957	 3887.6564097371 
1958	 3906.25967340438 
1959	 3930.4138897765 
1960	 3946.9929946093 
1961	 3967.57635280412 
1962	 3977.77393778545 
1963	 3977.83846748119 
1964	 3977.08550207354 
1965	 3971.84575220823 
1966	 3961.49202554214 
1967	 3954.07006981646 
1968	 3946.52643196278 
1969	 3935.61281376957 
1970	 3923.87786659319 
1971	 3910.33306453418 
1972	 3892.80533038129 
1973	 3875.71759919746 
1974	 3857.45389133703 
1975	 3840.48153692889 
1976	 3822.29467674389 
1977	 3805.05279690635 
1978	 3793.51411433271 
1979	 3774.75812774459 
1980	 3754.6360105545 
1981	 3733.88361547056 
1982	 3708.83521209531 
1983	 3674.26042369319 
1984	 3650.97410580458 
1985	 3631.52044576745 
1986	 3609.61997874046 
1987	 3595.2480200444 
1988	 3573.28640606957 
1989	 3543.90694064759 
1990	 3517.22906546731 
1991	 3490.47151400932 
1992	 3462.96767277931 
1993	 3429.10897542067 
1994	 3400.4132551862 
1995	 3375.0924936371 
1996	 3350.38522442723 
1997	 3325.29092771318 
1998	 3306.90122473137 
1999	 3281.25701076083 
2000	 3244.36737777714 
2001	 3223.17112167192 
2002	 3210.80482628819 
2003	 3195.37007781865 
2004	 3190.90841203112 
2005	 3176.06708275308 
2006	 3154.97845564335 
2007	 3125.31824520401 
2008	 3097.4233250837 
2009	 3069.0093985563 
2010	 3043.22978605348 
2011	 3018.45128692462 
2012	 2998.42956662079 
2013	 2983.78454466705 
2014	 2966.61969331327 
2015	 2953.41321295894 
2016	 2935.4328144633 
2017	 2905.15901374687 
2018	 2887.64587596558 
2019	 2879.29477870545 
2020	 2866.01075830629 
2021	 2855.21001618866 
2022	 2853.76032032909 
2023	 2828.96230346298 
2024	 2804.08804814888 
2025	 2785.94652823146 
2026	 2763.77801339996 
2027	 2749.85052475225 
2028	 2749.70063932499 
2029	 2740.55245588783 
2030	 2732.54432673262 
2031	 2718.62794954417 
2032	 2699.71346100303 
2033	 2677.62713793521 
2034	 2661.8804920211 
2035	 2644.63916920154 
2036	 2628.45331830444 
2037	 2617.95939586565 
2038	 2604.28884800971 
2039	 2602.14301189167 
2040	 2611.78762268443 
2041	 2610.61535487908 
2042	 2599.07472326602 
2043	 2577.63398374358 
2044	 2557.40639982611 
2045	 2527.7258410104 
2046	 2504.36342502809 
2047	 2481.3180056054 
2048	 2461.62674409954 
2049	 2447.24625190574 
2050	 2418.65723112195 
2051	 2399.47061132648 
2052	 2394.21245999815 
2053	 2375.07719804502 
2054	 2355.15643675277 
2055	 2341.32534951901 
2056	 2316.92242850969 
2057	 2292.5568644154 
2058	 2275.42288143076 
2059	 2254.55572293947 
2060	 2228.32880239319 
2061	 2204.49402747199 
2062	 2182.3603743843 
2063	 2159.95910349223 
2064	 2134.51531171114 
2065	 2116.56716055667 
2066	 2102.48500460179 
2067	 2085.2263519826 
2068	 2061.68341074634 
2069	 2031.65890777201 
2070	 1986.57559229705 
2071	 1938.27413525381 
2072	 1890.72903799398 
2073	 1840.85596128087 
2074	 1800.75914018093 
2075	 1751.74090166771 
2076	 1702.71701843849 
2077	 1653.56649417683 
2078	 1607.91934621099 
2079	 1557.90417964087 
2080	 1515.77469398261 
2081	 1487.79588862847 
2082	 1435.49780146911 
2083	 1385.13875022948 
2084	 1334.10978719601 
2085	 1267.2559523172 
2086	 1217.17608498846 
2087	 1163.43694627317 
2088	 1112.23870168523 
2089	 1069.35768890118 
2090	 1015.29981405537 
2091	 966.026900898183 
2092	 924.57485247101 
2093	 892.300984520531 
2094	 874.23822852575 
2095	 854.060629795407 
2096	 845.551808864176 
2097	 827.664265102987 
2098	 807.431048063841 
2099	 780.171518987221 
2100	 757.488072763016 
2101	 745.332053453132 
2102	 726.782774107013 
2103	 712.48913075891 
2104	 698.381027097952 
2105	 680.708270387219 
2106	 673.309282169808 
2107	 663.521441052214 
2108	 658.093913718721 
2109	 646.324504385224 
2110	 626.92740319484 
2111	 607.573047241239 
2112	 584.140416508061 
2113	 568.200877855683 
2114	 559.978198847406 
2115	 561.429901438443 
2116	 564.704346810458 
2117	 578.868567933201 
2118	 585.482008411217 
2119	 591.672248378812 
2120	 589.746222861188 
2121	 598.536797139658 
2122	 612.932547419835 
2123	 628.80556964524 
2124	 657.514881501667 
2125	 685.993251680119 
2126	 695.856158222085 
2127	 714.807844391423 
2128	 735.294254261214 
2129	 746.837605547555 
2130	 774.748324438764 
2131	 806.758448196127 
2132	 831.845072476999 
2133	 850.120420362924 
2134	 870.095153695804 
2135	 884.83634142729 
2136	 891.401990114108 
2137	 893.484274415241 
2138	 888.010404854086 
2139	 885.732638748208 
2140	 875.678536132887 
2141	 881.201793890036 
2142	 885.911040095045 
2143	 895.41199438433 
2144	 899.30642339316 
2145	 904.352085452841 
2146	 915.777058626111 
2147	 920.836474579188 
2148	 920.885008043867 
2149	 911.946845391826 
2150	 894.795201965323 
2151	 888.682239777377 
2152	 898.657317946942 
2153	 899.690414882203 
2154	 904.856852117803 
2155	 916.466296572876 
2156	 918.259450825338 
2157	 923.275959237688 
2158	 931.400720252357 
2159	 942.570641694952 
2160	 950.812946895024 
2161	 958.576326886439 
2162	 972.843146211294 
2163	 992.632236398899 
2164	 1003.66984663503 
2165	 1013.5342798989 
2166	 1021.56720684796 
2167	 1014.40978965433 
2168	 1008.12365201189 
2169	 1010.71991138262 
2170	 1008.65389354068 
2171	 1002.76869798861 
2172	 994.640055195399 
2173	 990.327514991815 
2174	 983.507003548332 
2175	 979.833162462852 
2176	 991.261735630766 
2177	 1000.35868495633 
2178	 1008.75881871902 
2179	 1016.81209384738 
2180	 1018.46928436035 
2181	 1019.22209352403 
2182	 1007.10087670038 
2183	 999.247987365042 
2184	 990.522155484156 
2185	 986.724177759265 
2186	 983.672032763846 
2187	 988.216114310378 
2188	 1001.2274918352 
2189	 1008.79520554013 
2190	 1013.14728528153 
2191	 1007.79509918603 
2192	 996.590986637408 
2193	 982.634522714941 
2194	 971.264220413592 
2195	 962.353243611289 
2196	 952.787175126027 
2197	 942.010383504683 
2198	 929.691729603572 
2199	 911.621623759291 
2200	 890.406267119631 
2201	 875.492582723985 
2202	 862.703498374587 
2203	 861.704147279528 
2204	 868.339407769756 
2205	 871.479745165382 
2206	 874.258171262024 
2207	 859.314514082602 
2208	 829.594374215641 
2209	 802.313582791881 
2210	 777.801688092447 
2211	 747.061267666742 
2212	 725.86742020384 
2213	 715.240075437596 
2214	 696.483844387392 
2215	 677.97934795687 
2216	 657.733001262369 
2217	 640.446283426564 
2218	 614.926818271057 
2219	 582.043341216113 
2220	 548.989367026393 
2221	 520.593226144293 
2222	 483.305060394272 
2223	 456.701967533324 
2224	 428.989414025779 
2225	 396.275177870436 
2226	 362.645301722915 
2227	 328.173387097727 
2228	 300.185226489058 
2229	 276.222423517419 
2230	 261.749363713115 
2231	 246.54038262808 
2232	 221.901728329526 
2233	 188.739750108831 
2234	 152.762586627222 
2235	 125.02579268039 
2236	 110.363809789391 
2237	 98.9153091323794 
2238	 85.4126260555304 
2239	 73.9002641196138 
2240	 56.1823785953603 
2241	 41.0473672598893 
2242	 32.7531067679513 
2243	 25.8964449804931 
2244	 22.9116395509666 
2245	 18.6883649205905 
2246	 16.802052554248 
2247	 14.4628749802131 
2248	 6.5607854837535 
2249	 8.44734432660777 
2250	 22.7358624377129 
2251	 25.0400427587965 
2252	 24.7630690532279 
2253	 26.7324561737732 
2254	 16.6755055434638 
2255	 17.2022451289577 
2256	 29.7248350800588 
2257	 38.660621839942 
2258	 34.8877485488345 
2259	 35.0130608717132 
2260	 12.9211867601232 
2261	 2.59051699185829 
2262	 8.83292963532664 
2263	 11.1976041298034 
2264	 31.5094801077261 
2265	 43.2443472610999 
2266	 49.4817901019149 
2267	 53.0766444132532 
2268	 45.3940370137508 
2269	 50.5412734805001 
2270	 51.5590154400035 
2271	 49.2323976744321 
2272	 50.7289059277956 
2273	 38.5670738608007 
2274	 20.8986628949324 
2275	 7.56413951782792 
2276	 2.00556065260958 
2277	 2.0490873650011 
2278	 8.16852511313127 
2279	 7.04618661800903 
2280	 0.298437899636956 
2281	 1.00535638927899 
2282	-2.23471743109733 
2283	 4.43957400267219 
2284	 18.2661091904238 
2285	 21.4969547396233 
2286	 20.7115991716311 
2287	 13.0546297732416 
2288	 10.4713329155907 
2289	 1.96227640250938 
2290	 1.97405466295294 
2291	 11.6328533753285 
2292	 16.7432304372958 
2293	 24.5191297439876 
2294	 30.0232019815209 
2295	 33.0140177398516 
2296	 34.1114694405357 
2297	 32.8513279590832 
2298	 27.6624854693542 
2299	 16.4193094188145 
2300	 10.4992000663281 
2301	 7.18385131690753 
2302	 4.13976496362919 
2303	 6.68318344545114 
2304	 6.67948602495474 
2305	-2.28661320186125 
2306	-3.49492308692877 
2307	 0.802835009167017 
2308	 3.23762269873074 
2309	 6.59100874452299 
2310	 19.1701364570726 
2311	 21.6117160850919 
2312	 14.585966250507 
2313	 16.429784365111 
2314	 19.5997265069173 
2315	 19.8025059944846 
2316	 21.2997391179503 
2317	 24.6155123240365 
2318	 24.195684407132 
2319	 28.8055336632015 
2320	 34.3124152826493 
2321	 24.1720662942476 
2322	 10.1841517465296 
2323	-0.952660443888333 
2324	-5.29642144546789 
2325	 5.51412286169135 
2326	 20.0683086586808 
2327	 24.5077896939588 
2328	 15.0408470122507 
2329	 9.19940701656618 
2330	 3.80625117551831 
2331	 4.59600382718426 
2332	 19.2573552630566 
2333	 22.0102118329856 
2334	 23.7052058042529 
2335	 31.0369045600996 
2336	 32.0618133303774 
2337	 34.6478772715818 
2338	 32.4640565307757 
2339	 15.3640242921285 
2340	 1.32420612712283 
2341	-14.9912502860843 
2342	-21.2929501501899 
2343	-11.8770617852823 
2344	-7.45825282806464 
2345	 5.69523605215567 
2346	 11.2153266919783 
2347	 4.0055516393811 
2348	 4.48868233741285 
2349	 9.85415314742596 
2350	 8.48031321077938 
2351	 11.544074626518 
2352	 17.3580018365655 
2353	 8.44168947584308 
2354	 13.3011280332227 
2355	 19.7546709483704 
2356	 20.5176838947382 
2357	 32.1808708070254 
2358	 29.7873017311874 
2359	 25.390944913283 
2360	 19.6120011754438 
2361	 10.5354178511757 
2362	 10.4782012034684 
2363	 15.3099709500116 
2364	 26.9758889742405 
2365	 30.5995951738429 
2366	 27.6847052605808 
2367	 27.5160973272636 
2368	 20.1244099026573 
2369	 21.0343818564665 
2370	 34.8855359671219 
2371	 37.0981517256694 
2372	 40.5672143599693 
2373	 37.3343568560025 
2374	 18.9242802223777 
2375	 10.0169815027154 
2376	-0.554584032200389 
2377	-6.5519633343072 
2378	 2.40473765456629 
2379	 1.23911953938018 
2380	-0.131772823316099 
2381	 10.5364044539924 
2382	 10.7989498830233 
2383	 19.3059995978265 
2384	 35.2905521045607 
2385	 29.7692162149934 
2386	 34.8619113134019 
2387	 37.9792882916021 
2388	 26.7524932130908 
2389	 32.2045467383699 
2390	 27.0399413287018 
2391	 16.838037389143 
2392	 11.6697524083323 
2393	-3.59027916772671 
2394	-8.55664947829945 
2395	-9.0145185588813 
2396	-10.2074685548228 
2397	 3.94002952318283 
2398	 6.09018632057043 
2399	-3.76881637862571 
2400	 1.8342238824684 
2401	-1.14829191844516 
2402	-2.6434206232514 
2403	 14.8124398789116 
2404	 23.6198532493303 
2405	 23.4607550466363 
2406	 19.819489390353 
2407	 6.06783583608084 
2408	-0.22059691303694 
2409	-1.56491601640079 
2410	-0.54581671200922 
2411	 7.75743061926772 
2412	 5.78226407743665 
2413	 4.61310745168828 
2414	 5.91840806755582 
2415	 8.50695963213627 
2416	 7.82753336103695 
2417	 2.74655504945032 
2418	 8.44621915088105 
2419	 4.40485099927607 
2420	 3.11707929081734 
2421	 11.6250436365654 
2422	 11.2572345612128 
2423	 20.6432137762323 
2424	 23.8431095668916 
2425	 19.3996094682671 
2426	 28.7781953820239 
2427	 27.8076144104214 
2428	 30.2420481610279 
2429	 36.920245290861 
2430	 28.6427202673778 
2431	 27.2417368385731 
2432	 34.692708532464 
2433	 34.2423041423681 
2434	 34.818972728819 
2435	 37.2966407536854 
2436	 20.2000954137919 
2437	 12.7042842783457 
2438	 15.7308126890627 
2439	 9.96423170096779 
2440	 15.9824603920626 
2441	 21.6195560375189 
2442	 14.0622675936349 
2443	 0.260525321781952 
2444	-11.4263871198307 
2445	-17.8596882826914 
2446	-16.7807634731067 
2447	 2.38001554932326 
2448	 17.170022075402 
2449	 20.8317434442124 
2450	 29.3293090782895 
2451	 23.3292813334415 
2452	 13.9024002845868 
2453	 12.4231052633627 
2454	 2.23622010861211 
2455	-6.72731986552162 
2456	-6.40263668028077 
2457	 1.8066225553703 
2458	 14.68981896017 
2459	 16.9502107216672 
2460	 14.0998985757017 
2461	 5.05308573037493 
2462	-5.71139289372408 
2463	 9.49098635085356 
2464	 29.4992663601116 
2465	 66.1065417352997 
2466	 71.5477972312795 
2467	 46.325520769161 
2468	 29.6642336722745 
2469	-7.45480725752081E-02 
2470	-14.5820729118766 
2471	 0.326361020757957 
2472	 12.1270617143826 
2473	 21.558363989995 
2474	 17.3612658878289 
2475	 14.4017996144212 
2476	 16.055381703763 
2477	 9.86403568412836 
2478	 17.4265372629722 
2479	 21.4878086584756 
2480	 17.6102688636252 
2481	 30.2141974535917 
2482	 39.2840606016711 
2483	 36.2939720156911 
2484	 37.7137594738862 
2485	 29.0266556034452 
2486	 15.1928099714257 
2487	 3.71216852666916 
2488	-9.08886679469968 
2489	-12.2208451389769 
2490	-9.35089174776088 
2491	 4.11657331419206 
2492	 26.6126790564489 
2493	 40.7306569151118 
2494	 47.8919240870755 
2495	 47.2056494816632 
2496	 33.8194143788187 
2497	 18.2041394834586 
2498	 9.99332907229156 
2499	 13.1395562046571 
2500	 17.9188894262173 
