Wavelength	4mm_WhitePLA00000.asd
350	-0.70795695131244 
351	-0.347767298529398 
352	 0.361020638743571 
353	 0.46825836502911 
354	 0.684714905478546 
355	 0.923392814722279 
356	 0.915924942130209 
357	 0.116086271538558 
358	-0.245576480242884 
359	-0.135392690436942 
360	-0.502549056846899 
361	-0.305412268847101 
362	-0.494177555881541 
363	-1.51692771749698 
364	 0.474652844291252 
365	 1.40950630132546 
366	 0.117458109671972 
367	-0.791536002784991 
368	-0.121423456467289 
369	 0.821490930662638 
370	 0.241799152012821 
371	 0.128690501500746 
372	-0.110961369535358 
373	-0.484694893225645 
374	 0.685452975819886 
375	 1.76539428863302 
376	 1.69589784344647 
377	-6.76039975604689E-02 
378	-0.526876468734758 
379	-0.609480744609473 
380	-1.11631434464308 
381	-0.591372947620196 
382	 0.929745160024597 
383	 1.96457580470198 
384	-0.201138165632571 
385	-0.837767691859502 
386	-0.562656873235364 
387	-0.798681299782421 
388	 0.375101870848365 
389	 1.49436237939047 
390	 1.59015331240916 
391	 0.523076922492443 
392	-0.911706456098967 
393	-1.43310104103327 
394	 6.63978644217909E-02 
395	 1.13204093833511 
396	 1.21795197212531 
397	 0.700193986821936 
398	 1.75699178569153 
399	 1.68789812598256 
400	 0.426476271520878 
401	-8.04398863843853E-02 
402	 0.940422279676737 
403	 2.63924411680891 
404	 3.62314925047715 
405	 2.22887043403934 
406	 1.00529272949579 
407	 1.31245524214535 
408	 2.71680049495917 
409	 3.29521983025337 
410	 3.47215753656343 
411	 4.71398360979415 
412	 7.33225037276729 
413	 9.2059364412567 
414	 9.63002721978711 
415	 12.557947883158 
416	 17.1213507116457 
417	 22.7023363327285 
418	 28.781614190676 
419	 33.8052736472892 
420	 38.5505093451148 
421	 44.1061635658867 
422	 48.9976897221973 
423	 53.9090832019323 
424	 59.2669021966369 
425	 64.8766248712313 
426	 70.0813895926604 
427	 74.7994447227972 
428	 79.371590277879 
429	 85.3740321043808 
430	 90.5925078398257 
431	 93.3131074370113 
432	 96.4371932030562 
433	 98.0126345519684 
434	 98.7332932312813 
435	 102.985591040287 
436	 106.195026956909 
437	 108.343340715133 
438	 110.975571041972 
439	 113.712380772698 
440	 115.514085916498 
441	 116.084232309079 
442	 117.130539333497 
443	 119.426381671886 
444	 122.043883246608 
445	 122.403329749966 
446	 124.641648832555 
447	 127.071303314068 
448	 127.35821205245 
449	 130.700203890858 
450	 133.655123365571 
451	 134.55404234474 
452	 136.709637230302 
453	 140.611378580305 
454	 144.611255950137 
455	 145.451821974208 
456	 145.615845224355 
457	 146.80546353054 
458	 150.105306155981 
459	 154.902716835516 
460	 157.940121236254 
461	 158.485608775275 
462	 160.13697313992 
463	 163.708441307107 
464	 167.656631193836 
465	 169.109276680107 
466	 172.302456089687 
467	 176.301558717183 
468	 179.587881921708 
469	 182.708485546953 
470	 185.517499592924 
471	 188.457774480008 
472	 193.143092100217 
473	 196.660439863282 
474	 199.397038238136 
475	 203.309590032284 
476	 208.95449319924 
477	 214.607737915527 
478	 218.887241632125 
479	 223.166875395556 
480	 227.557426525749 
481	 232.098246992352 
482	 236.710209251219 
483	 242.218379148478 
484	 248.6129375443 
485	 255.342349134778 
486	 260.561507753091 
487	 265.544507314239 
488	 271.632042028093 
489	 278.66909102291 
490	 285.357875401549 
491	 291.823454477751 
492	 300.113444389108 
493	 308.757770176568 
494	 316.618206201766 
495	 322.939206299037 
496	 330.710794293689 
497	 339.096191450798 
498	 347.323437539387 
499	 357.220312598973 
500	 366.397344266688 
501	 374.264496529185 
502	 382.472433850579 
503	 390.925028437223 
504	 400.066149797313 
505	 410.388096630326 
506	 421.411775837007 
507	 430.806559782601 
508	 437.991776688451 
509	 449.095604732565 
510	 460.703363094907 
511	 471.735483496357 
512	 484.415887558944 
513	 495.251359868792 
514	 505.38945294454 
515	 517.76947369499 
516	 530.015101578486 
517	 542.32998186324 
518	 554.804026669807 
519	 565.261598117939 
520	 577.294610517245 
521	 591.645829422082 
522	 605.055535043712 
523	 617.233942026431 
524	 629.479586912208 
525	 643.874715923301 
526	 658.031068799791 
527	 672.165773026261 
528	 686.629603935683 
529	 700.385695174668 
530	 713.866492060096 
531	 727.289010368715 
532	 740.312439153935 
533	 754.866855822344 
534	 769.424617611043 
535	 780.913466532355 
536	 796.391371480319 
537	 811.817064830751 
538	 823.058918779224 
539	 836.450661287701 
540	 850.439278273441 
541	 863.987263288845 
542	 877.608087941501 
543	 890.948671395118 
544	 903.779469137154 
545	 915.963366304135 
546	 928.586952891437 
547	 941.822040678776 
548	 955.308634637338 
549	 967.166960698233 
550	 979.920308713662 
551	 993.979666936808 
552	 1004.48339130827 
553	 1015.42935920497 
554	 1027.93253619592 
555	 1041.20303028992 
556	 1052.7229393633 
557	 1063.00715765704 
558	 1073.37398461356 
559	 1083.47214011949 
560	 1093.6174601571 
561	 1103.7469615543 
562	 1112.85237165341 
563	 1120.916483432 
564	 1127.55291846492 
565	 1131.96943290178 
566	 1137.53264467042 
567	 1142.73063121418 
568	 1144.90656755103 
569	 1147.87332764209 
570	 1149.42021858989 
571	 1148.47047901423 
572	 1149.87477845879 
573	 1148.73142109323 
574	 1144.76473128352 
575	 1143.30059464256 
576	 1140.64521054066 
577	 1137.15860341484 
578	 1134.33677072067 
579	 1127.75891588836 
580	 1120.97020269668 
581	 1116.91502770899 
582	 1111.12696442447 
583	 1107.00239933028 
584	 1104.64454065951 
585	 1098.61995316964 
586	 1093.22998970352 
587	 1088.63244378746 
588	 1083.18314295864 
589	 1078.95729360143 
590	 1076.30937865474 
591	 1074.95986723311 
592	 1073.66668872045 
593	 1072.78392001644 
594	 1072.61967843838 
595	 1073.08249163481 
596	 1075.28230743109 
597	 1079.50864972092 
598	 1085.49467563017 
599	 1094.20509552755 
600	 1102.83064475234 
601	 1108.66212523239 
602	 1116.09810210658 
603	 1125.25258011528 
604	 1135.03686860012 
605	 1142.12093092343 
606	 1150.02558609377 
607	 1160.24029231486 
608	 1172.66320761846 
609	 1186.36582664356 
610	 1202.84845749122 
611	 1223.54193278714 
612	 1242.26084820406 
613	 1259.28712186758 
614	 1275.47517251563 
615	 1290.32423933534 
616	 1305.06506238212 
617	 1320.06285244113 
618	 1334.59947206237 
619	 1349.83764970673 
620	 1365.65639519303 
621	 1381.4262955254 
622	 1397.85280258119 
623	 1413.61972811556 
624	 1428.35081546176 
625	 1446.79003794007 
626	 1464.6674900111 
627	 1480.25758632588 
628	 1496.0626628765 
629	 1511.73037289905 
630	 1526.76921512069 
631	 1540.49412129527 
632	 1554.08624195622 
633	 1566.68544241563 
634	 1577.62613910442 
635	 1589.51743322231 
636	 1601.310898261 
637	 1612.303416762 
638	 1622.76199839301 
639	 1633.65176836755 
640	 1645.26494678189 
641	 1657.38110258199 
642	 1668.7876198429 
643	 1680.16736270938 
644	 1692.48555607113 
645	 1704.37673137029 
646	 1716.31906994547 
647	 1728.94989385803 
648	 1743.06568799154 
649	 1757.05494826667 
650	 1770.52607887155 
651	 1784.23350657064 
652	 1797.63510547529 
653	 1811.40256729558 
654	 1826.48808975357 
655	 1842.13585484103 
656	 1858.16566953486 
657	 1874.42937246797 
658	 1890.73022902557 
659	 1906.35872880855 
660	 1921.85256084502 
661	 1939.51747323505 
662	 1957.33575499419 
663	 1974.24680409682 
664	 1989.78134710883 
665	 2007.042214033 
666	 2025.11781562728 
667	 2042.75313589968 
668	 2060.24860306556 
669	 2079.10095735079 
670	 2099.31039029208 
671	 2118.15515674289 
672	 2138.86121610993 
673	 2161.31422363085 
674	 2183.63275681217 
675	 2205.36173510256 
676	 2227.10512579588 
677	 2249.79118411644 
678	 2274.49701449968 
679	 2299.05935109896 
680	 2322.58188628621 
681	 2346.83383300063 
682	 2371.50851914503 
683	 2396.03267207215 
684	 2419.58151915225 
685	 2445.26200380624 
686	 2472.4614541061 
687	 2499.42970785054 
688	 2524.29815893669 
689	 2549.69244999617 
690	 2576.83112933059 
691	 2603.03676094094 
692	 2628.71214898193 
693	 2654.30692159887 
694	 2680.46697786718 
695	 2705.44547466946 
696	 2730.33105713479 
697	 2756.48385300863 
698	 2780.18834280281 
699	 2803.82640894782 
700	 2828.60407120501 
701	 2850.87591933418 
702	 2873.04959039407 
703	 2895.14011850548 
704	 2914.80297977566 
705	 2934.71765969577 
706	 2954.98500822432 
707	 2974.82110304586 
708	 2994.06846694017 
709	 3012.635183554 
710	 3030.30885668797 
711	 3046.28632608927 
712	 3061.77087952153 
713	 3077.47885857432 
714	 3093.7840982934 
715	 3107.47834648306 
716	 3119.77181299408 
717	 3133.41018939924 
718	 3146.44799451688 
719	 3159.78283326251 
720	 3173.65509099891 
721	 3185.02047320754 
722	 3195.08480538094 
723	 3204.82033145653 
724	 3214.92198012076 
725	 3225.99005532114 
726	 3237.70130599061 
727	 3249.17856438201 
728	 3259.04994841066 
729	 3269.55812018098 
730	 3281.8354477387 
731	 3290.81007991968 
732	 3301.57166863189 
733	 3315.74714428609 
734	 3330.62361701923 
735	 3343.60129683589 
736	 3355.95445311265 
737	 3370.39314859763 
738	 3381.69559144656 
739	 3392.4495801537 
740	 3404.63854597307 
741	 3413.34533969055 
742	 3421.97821187119 
743	 3432.01033593487 
744	 3442.52689966792 
745	 3450.85251221832 
746	 3457.25923181256 
747	 3463.50798032454 
748	 3470.8295111919 
749	 3477.72647129934 
750	 3483.10123638406 
751	 3489.06676613233 
752	 3493.76442781828 
753	 3497.09427254243 
754	 3501.3536074383 
755	 3504.75539044904 
756	 3507.04678039719 
757	 3508.43992790133 
758	 3507.88198488846 
759	 3505.28642046877 
760	 3501.91629714469 
761	 3502.8916567406 
762	 3504.4428736989 
763	 3505.15523652 
764	 3506.36372290176 
765	 3507.62426047797 
766	 3507.65605704184 
767	 3505.07555356844 
768	 3501.21961967158 
769	 3497.57984365222 
770	 3494.81828091426 
771	 3491.19880964565 
772	 3488.15957446626 
773	 3485.5368925037 
774	 3481.53359467816 
775	 3475.85239449907 
776	 3470.21586178319 
777	 3466.42435887215 
778	 3460.50699403346 
779	 3454.01129829038 
780	 3447.62588806055 
781	 3437.94342417215 
782	 3429.74810311363 
783	 3423.17832384239 
784	 3414.5510848729 
785	 3405.01587524766 
786	 3395.80275827992 
787	 3387.48663875034 
788	 3375.91866743133 
789	 3364.42592907982 
790	 3354.88266636068 
791	 3345.4309385599 
792	 3334.81705686242 
793	 3322.80021792748 
794	 3309.93471839056 
795	 3297.04582003284 
796	 3284.14243463737 
797	 3271.27773923623 
798	 3259.84838418989 
799	 3248.12418548183 
800	 3235.41005791587 
801	 3222.63958763098 
802	 3210.7958916241 
803	 3199.23894213815 
804	 3186.65985772108 
805	 3174.76721112688 
806	 3163.27861970676 
807	 3151.171078408 
808	 3135.78260278751 
809	 3121.09151415877 
810	 3108.09786988584 
811	 3094.61602728755 
812	 3080.87586409086 
813	 3066.91686351799 
814	 3052.81034695495 
815	 3038.7484872446 
816	 3024.12806889369 
817	 3008.94076860478 
818	 2994.79232000688 
819	 2979.84244922017 
820	 2964.75360726727 
821	 2951.65108294561 
822	 2934.56921921176 
823	 2916.58120777188 
824	 2901.5819802731 
825	 2887.72724227752 
826	 2873.43928828327 
827	 2858.68727331499 
828	 2845.88305281873 
829	 2830.80341003795 
830	 2813.92704116875 
831	 2797.24466984008 
832	 2777.11247547874 
833	 2755.78433791812 
834	 2736.05611055533 
835	 2720.5855992909 
836	 2704.53020955649 
837	 2688.32830403869 
838	 2676.63177742927 
839	 2667.99134308134 
840	 2659.35605500018 
841	 2648.16335096937 
842	 2636.84653749919 
843	 2623.72570313296 
844	 2608.62012209802 
845	 2593.79088610626 
846	 2579.56365322591 
847	 2565.39712416142 
848	 2550.36045200155 
849	 2535.14629611179 
850	 2519.54184146598 
851	 2503.45695435969 
852	 2487.29813961417 
853	 2471.54503554458 
854	 2456.05610441174 
855	 2440.24273942909 
856	 2425.47031794636 
857	 2410.63142270636 
858	 2394.36731484121 
859	 2376.40262885159 
860	 2359.65026661647 
861	 2344.60035698647 
862	 2328.53841855647 
863	 2313.96084879241 
864	 2299.26816410135 
865	 2282.19357552463 
866	 2266.18101933761 
867	 2249.75408276405 
868	 2232.46772455998 
869	 2216.83570463574 
870	 2201.68810602893 
871	 2186.98224972179 
872	 2172.94029781083 
873	 2156.96671048903 
874	 2140.48575030491 
875	 2124.61444131861 
876	 2107.66945665071 
877	 2089.97552719467 
878	 2072.47486860126 
879	 2056.56278916371 
880	 2039.61860642239 
881	 2021.48981646052 
882	 2002.6440980496 
883	 1983.3771584799 
884	 1964.18996315489 
885	 1944.53931827038 
886	 1922.63802261508 
887	 1899.96131839959 
888	 1877.17265083175 
889	 1854.88690038719 
890	 1834.61070380186 
891	 1815.21095725887 
892	 1795.79465708946 
893	 1775.79728595753 
894	 1760.03673499979 
895	 1745.35286692987 
896	 1726.81087820017 
897	 1712.81303197217 
898	 1700.73951598166 
899	 1688.74606198286 
900	 1678.6115387303 
901	 1671.42335424281 
902	 1665.91215948868 
903	 1659.87952341219 
904	 1656.08803098621 
905	 1653.08570005944 
906	 1649.23977676845 
907	 1643.74753101739 
908	 1637.42215314094 
909	 1629.82606684531 
910	 1620.00625598576 
911	 1610.15649127252 
912	 1599.8735357191 
913	 1588.92099047737 
914	 1578.98329745217 
915	 1567.1795751083 
916	 1554.33435490371 
917	 1543.54661158476 
918	 1530.96785443173 
919	 1519.06643660988 
920	 1509.22474320777 
921	 1496.41946361787 
922	 1482.36784523682 
923	 1468.94684067265 
924	 1458.0000707412 
925	 1446.40882593488 
926	 1433.80324210948 
927	 1420.6592920037 
928	 1408.36072475176 
929	 1395.06625317 
930	 1380.59915943327 
931	 1366.01425886363 
932	 1350.55877597243 
933	 1336.0257996463 
934	 1323.39300984532 
935	 1309.9401544416 
936	 1296.69157762008 
937	 1284.08240872268 
938	 1272.05694139909 
939	 1259.33304854603 
940	 1245.52231456513 
941	 1230.96114609552 
942	 1217.29126453962 
943	 1204.31394290262 
944	 1191.76716813832 
945	 1179.31053748166 
946	 1167.0728004767 
947	 1154.06186731913 
948	 1140.3655355515 
949	 1129.33979341808 
950	 1117.33321695261 
951	 1104.25160128524 
952	 1091.78677475909 
953	 1078.71134419687 
954	 1066.57855750461 
955	 1055.31801869158 
956	 1040.40524118139 
957	 1026.96970148361 
958	 1015.1864791982 
959	 1003.08562571743 
960	 989.531772355972 
961	 977.57371890004 
962	 967.389406138358 
963	 953.814862362401 
964	 940.393051567465 
965	 927.374418202253 
966	 1551.96539040478 
967	 1570.09136973084 
968	 1591.20611002808 
969	 1611.91492318548 
970	 1633.793717833 
971	 1657.81014708024 
972	 1682.02087254439 
973	 1708.42337223267 
974	 1740.76227908715 
975	 1768.80059061553 
976	 1797.75502197586 
977	 1822.14256268275 
978	 1842.33166955791 
979	 1862.67518407527 
980	 1886.51014479527 
981	 1912.38056056458 
982	 1936.11654905305 
983	 1959.91168561865 
984	 1978.12781093667 
985	 1992.72452199527 
986	 2010.6975502131 
987	 2029.82775938098 
988	 2048.42482965558 
989	 2069.63736053277 
990	 2086.20120264762 
991	 2101.72680119669 
992	 2115.82266332436 
993	 2125.95974766954 
994	 2135.577554568 
995	 2151.01799191195 
996	 2165.20460286577 
997	 2179.48511591537 
998	 2197.2875866557 
999	 2211.4200871913 
1000	 2223.84021273096 
1001	 2239.91146433258 
1002	 2255.52860757097 
1003	 2271.53954679231 
1004	 2286.31673166897 
1005	 2301.08044027663 
1006	 2315.03869301839 
1007	 2330.04549371835 
1008	 2344.99485107571 
1009	 2360.58372334658 
1010	 2377.76369759382 
1011	 2391.55496195947 
1012	 2408.1606667238 
1013	 2428.11351191943 
1014	 2447.45905002341 
1015	 2466.76566943598 
1016	 2483.72221300289 
1017	 2501.2734845833 
1018	 2518.1157963138 
1019	 2535.21577499585 
1020	 2554.01870383459 
1021	 2569.52227642376 
1022	 2583.86051094059 
1023	 2600.8701626036 
1024	 2618.94058834244 
1025	 2637.9866352147 
1026	 2656.66329452292 
1027	 2673.7537655475 
1028	 2687.6085901511 
1029	 2699.97115619867 
1030	 2713.41526278852 
1031	 2730.34062677022 
1032	 2747.43511204056 
1033	 2762.57549291981 
1034	 2780.83039386572 
1035	 2798.1098470382 
1036	 2813.46777077719 
1037	 2829.08289398071 
1038	 2840.27052753799 
1039	 2850.9739251934 
1040	 2865.67784786403 
1041	 2883.63611938862 
1042	 2899.78746511184 
1043	 2917.70464943349 
1044	 2936.60085472573 
1045	 2951.05236731402 
1046	 2966.76523935142 
1047	 2983.80598309984 
1048	 2998.69756601941 
1049	 3015.12927417883 
1050	 3029.7879087431 
1051	 3044.64080323877 
1052	 3059.22717420461 
1053	 3070.86199218826 
1054	 3086.67317435938 
1055	 3099.90634694729 
1056	 3113.25034819703 
1057	 3129.24933557489 
1058	 3147.78112112801 
1059	 3162.35305949486 
1060	 3177.91862729278 
1061	 3192.9791761671 
1062	 3205.84945011902 
1063	 3217.99351409002 
1064	 3232.16960332079 
1065	 3244.67914290591 
1066	 3258.39356185732 
1067	 3273.67268217683 
1068	 3287.80312050104 
1069	 3301.78230795587 
1070	 3312.96647216269 
1071	 3326.52702515962 
1072	 3345.45630458218 
1073	 3365.6342107982 
1074	 3383.11968205875 
1075	 3400.90272665464 
1076	 3417.14596019175 
1077	 3430.07702059891 
1078	 3445.90407996018 
1079	 3461.98058873404 
1080	 3480.22291775892 
1081	 3501.45057062003 
1082	 3520.16357854861 
1083	 3539.01825697197 
1084	 3558.1842766848 
1085	 3577.28293331394 
1086	 3593.677538753 
1087	 3608.23301656323 
1088	 3628.0985580842 
1089	 3648.28740104018 
1090	 3668.42271179503 
1091	 3691.33474186145 
1092	 3718.75606815105 
1093	 3743.26937020363 
1094	 3766.04052219377 
1095	 3793.19946699204 
1096	 3822.75109031435 
1097	 3851.51313482242 
1098	 3881.85863242122 
1099	 3913.10339394004 
1100	 3944.10407469093 
1101	 3975.83282586746 
1102	 4011.17256232981 
1103	 4044.10187652866 
1104	 4073.25846890881 
1105	 4106.02689370722 
1106	 4142.0929503393 
1107	 4176.71574204521 
1108	 4213.3608138217 
1109	 4251.47045005467 
1110	 4288.94099647631 
1111	 4324.60238578181 
1112	 4363.10874904606 
1113	 4405.10350632729 
1114	 4443.44453714856 
1115	 4482.35645831212 
1116	 4518.41629520582 
1117	 4553.52436941797 
1118	 4584.47376998138 
1119	 4612.90211081454 
1120	 4638.87855719205 
1121	 4659.60479823885 
1122	 4681.05383603331 
1123	 4701.45050267964 
1124	 4720.73258545515 
1125	 4740.2987786028 
1126	 4757.13742065646 
1127	 4771.34228860305 
1128	 4783.53900680953 
1129	 4793.82523652307 
1130	 4799.22394324441 
1131	 4809.41820841875 
1132	 4817.65856954205 
1133	 4832.40652586572 
1134	 4850.38147712071 
1135	 4871.65153016829 
1136	 4897.67665121281 
1137	 4924.37925996982 
1138	 4954.65279370998 
1139	 4984.70392376344 
1140	 5018.49839299388 
1141	 5048.49819680572 
1142	 5080.91668124348 
1143	 5106.70836107818 
1144	 5131.45629327013 
1145	 5147.97192658755 
1146	 5160.35123265409 
1147	 5163.97846829442 
1148	 5159.97475432308 
1149	 5148.85814687499 
1150	 5129.08265273833 
1151	 5100.09432057039 
1152	 5066.63945293464 
1153	 5024.52752410879 
1154	 4979.73548975948 
1155	 4927.20213297576 
1156	 4876.74955992753 
1157	 4820.10192258252 
1158	 4769.26887918383 
1159	 4719.51292238709 
1160	 4672.25501968363 
1161	 4626.95550281242 
1162	 4584.24543870098 
1163	 4544.17601749795 
1164	 4505.55375606119 
1165	 4468.78711691132 
1166	 4434.43097112612 
1167	 4399.79380292102 
1168	 4369.98222134438 
1169	 4344.95816685795 
1170	 4327.48108426561 
1171	 4318.30127714328 
1172	 4314.41841274909 
1173	 4325.68529791401 
1174	 4345.12345538606 
1175	 4379.17458360392 
1176	 4425.35241303723 
1177	 4486.34816919592 
1178	 4558.11444277347 
1179	 4647.73551489889 
1180	 4756.21514914107 
1181	 4873.77678922367 
1182	 5012.64638089237 
1183	 5147.9494311864 
1184	 5298.87467376513 
1185	 5438.00018777431 
1186	 5577.95585868549 
1187	 5710.15618260813 
1188	 5838.65138989249 
1189	 5958.11464677675 
1190	 6072.588216727 
1191	 6177.4852276652 
1192	 6268.99863749387 
1193	 6349.49775972591 
1194	 6419.91611092621 
1195	 6483.19696968046 
1196	 6544.53151457996 
1197	 6599.91485344395 
1198	 6653.72920883447 
1199	 6703.35900429696 
1200	 6752.75149204252 
1201	 6797.14327436402 
1202	 6846.31958796089 
1203	 6895.73155328938 
1204	 6946.06160651617 
1205	 7000.01632592663 
1206	 7051.57344228098 
1207	 7102.56990577998 
1208	 7152.46052923772 
1209	 7202.31845636827 
1210	 7250.52500347528 
1211	 7297.6633433082 
1212	 7343.76343202309 
1213	 7387.024512648 
1214	 7427.46688805977 
1215	 7465.64827285268 
1216	 7501.35019128822 
1217	 7534.69353952125 
1218	 7565.61869258007 
1219	 7594.83051638202 
1220	 7621.94911857551 
1221	 7646.61566864962 
1222	 7670.59504674764 
1223	 7690.02815659762 
1224	 7704.2810743359 
1225	 7719.872584988 
1226	 7732.67141898905 
1227	 7746.67199860435 
1228	 7760.78243696767 
1229	 7773.80961631188 
1230	 7786.09541107018 
1231	 7799.38182198904 
1232	 7812.54576299133 
1233	 7826.61434673302 
1234	 7841.5200993319 
1235	 7854.80848213814 
1236	 7867.10165645191 
1237	 7881.24114590756 
1238	 7891.68311366641 
1239	 7905.69131064464 
1240	 7920.73405934786 
1241	 7932.25020271601 
1242	 7947.5157917784 
1243	 7963.33916829242 
1244	 7976.08060689261 
1245	 7988.09470460048 
1246	 7999.0295324708 
1247	 8011.18641907786 
1248	 8025.16968378271 
1249	 8043.61214031608 
1250	 8061.65736953573 
1251	 8082.31186646141 
1252	 8099.71149782484 
1253	 8116.27261315305 
1254	 8132.83144378982 
1255	 8148.8329672893 
1256	 8164.95996142192 
1257	 8181.05318329487 
1258	 8197.04090041142 
1259	 8211.38933641999 
1260	 8226.85658236828 
1261	 8243.27622890878 
1262	 8260.40480385573 
1263	 8275.73906150178 
1264	 8291.53850631927 
1265	 8304.34014529485 
1266	 8314.01727483848 
1267	 8325.71465734821 
1268	 8334.29987656849 
1269	 8340.88369635992 
1270	 8350.79415420657 
1271	 8356.53700595705 
1272	 8358.76808616923 
1273	 8360.46362896602 
1274	 8358.63667878467 
1275	 8356.73632441266 
1276	 8355.82713325044 
1277	 8353.43708953715 
1278	 8349.87797980558 
1279	 8343.57559767713 
1280	 8334.24060024712 
1281	 8322.16055102831 
1282	 8306.36425959131 
1283	 8293.43551298006 
1284	 8277.87267135362 
1285	 8264.07164937054 
1286	 8254.22902327001 
1287	 8240.74624379587 
1288	 8224.18547883157 
1289	 8210.18769425459 
1290	 8196.9781329432 
1291	 8184.37515001297 
1292	 8174.82691958408 
1293	 8166.44605954433 
1294	 8158.14512601268 
1295	 8149.96008859741 
1296	 8139.2363972588 
1297	 8126.91740793803 
1298	 8116.89415453307 
1299	 8109.04722028496 
1300	 8106.49030097442 
1301	 8110.47349154363 
1302	 8115.56629208156 
1303	 8120.26758315627 
1304	 8124.56092711614 
1305	 8127.75747787473 
1306	 8130.74662566425 
1307	 8135.45632792737 
1308	 8144.29640336541 
1309	 8152.50529918282 
1310	 8158.1076410287 
1311	 8162.80065142769 
1312	 8168.0918892626 
1313	 8171.0452284097 
1314	 8175.03507289458 
1315	 8180.65166736869 
1316	 8186.34104418969 
1317	 8188.96939333167 
1318	 8195.27920850147 
1319	 8204.04559257613 
1320	 8215.4036635859 
1321	 8224.49728037063 
1322	 8234.29657158154 
1323	 8245.50540370439 
1324	 8253.3319060302 
1325	 8262.37591365253 
1326	 8274.26390189187 
1327	 8282.48662222064 
1328	 8287.97520043873 
1329	 8294.23183242565 
1330	 8294.19735979611 
1331	 8290.66218227881 
1332	 8282.86071479304 
1333	 8262.31879107779 
1334	 8231.90971420486 
1335	 8194.05349475035 
1336	 8146.49229317083 
1337	 8089.15635738251 
1338	 8020.41949515551 
1339	 7937.26873177256 
1340	 7846.90751136672 
1341	 7746.79331487379 
1342	 7642.80653459823 
1343	 7538.33207885612 
1344	 7434.60178523398 
1345	 7337.18466088906 
1346	 7247.29387208404 
1347	 7168.19090518086 
1348	 7097.3587837696 
1349	 7035.66159910367 
1350	 6987.09947127868 
1351	 6941.54126410577 
1352	 6905.58846321791 
1353	 6870.18841761255 
1354	 6839.63045633526 
1355	 6810.15999975735 
1356	 6778.91543805233 
1357	 6744.51476916339 
1358	 6706.31209289479 
1359	 6662.22280145927 
1360	 6611.50098700319 
1361	 6561.60737653486 
1362	 6506.47977368145 
1363	 6454.6824765887 
1364	 6409.25393648535 
1365	 6366.54326749449 
1366	 6335.35809417817 
1367	 6311.48004653399 
1368	 6297.12233734648 
1369	 6294.52004018422 
1370	 6305.50283483104 
1371	 6319.26571666852 
1372	 6335.02988458129 
1373	 6354.49616719838 
1374	 6363.70642050255 
1375	 6369.43568011896 
1376	 6373.72881702282 
1377	 6371.3216075861 
1378	 6364.68995997703 
1379	 6357.31714359036 
1380	 6345.50194930559 
1381	 6334.62691457791 
1382	 6329.96220012868 
1383	 6331.33684254468 
1384	 6343.93049903651 
1385	 6367.05034974373 
1386	 6401.71310356798 
1387	 6443.57570834008 
1388	 6491.65253240428 
1389	 6541.61737193359 
1390	 6589.51584729937 
1391	 6638.53326144862 
1392	 6684.4220280387 
1393	 6729.44075876094 
1394	 6770.29561533476 
1395	 6808.79159098922 
1396	 6842.04342692005 
1397	 6872.87952627994 
1398	 6903.98975613658 
1399	 6933.6130772935 
1400	 6963.69875339438 
1401	 6992.66478186532 
1402	 7019.19641495517 
1403	 7046.73571594879 
1404	 7078.12803236285 
1405	 7112.70913125753 
1406	 7152.7309947725 
1407	 7197.85991042539 
1408	 7245.94158793668 
1409	 7299.77517227738 
1410	 7354.0827094088 
1411	 7409.81882472908 
1412	 7466.80460547836 
1413	 7522.84750714896 
1414	 7579.66422719363 
1415	 7636.23907099146 
1416	 7694.25409432342 
1417	 7748.64109328605 
1418	 7799.479095329 
1419	 7851.92053271638 
1420	 7902.98009828733 
1421	 7953.91705083419 
1422	 8005.21807938517 
1423	 8053.58775359921 
1424	 8095.62777881482 
1425	 8132.69367140373 
1426	 8167.75534974172 
1427	 8198.83225404692 
1428	 8225.57685092803 
1429	 8245.33353383506 
1430	 8258.11758057896 
1431	 8260.89419384212 
1432	 8255.65984535117 
1433	 8247.95070447053 
1434	 8233.90956314718 
1435	 8218.49683926486 
1436	 8201.25720972239 
1437	 8178.72835825089 
1438	 8159.35770018523 
1439	 8140.89960217692 
1440	 8123.62826004414 
1441	 8110.39276104499 
1442	 8098.23031689835 
1443	 8090.86587060756 
1444	 8089.70307237764 
1445	 8092.55418747802 
1446	 8100.49525579912 
1447	 8112.44649032832 
1448	 8131.26529879635 
1449	 8149.77865599939 
1450	 8172.66483032952 
1451	 8194.40574094608 
1452	 8217.06771929864 
1453	 8236.71844068037 
1454	 8259.2065861097 
1455	 8282.1668876673 
1456	 8304.96143449856 
1457	 8327.63954621512 
1458	 8348.56474974531 
1459	 8369.93702069089 
1460	 8392.25240266092 
1461	 8418.02450766384 
1462	 8440.27015339275 
1463	 8464.26755740789 
1464	 8490.60206378475 
1465	 8512.41799959912 
1466	 8538.69708142947 
1467	 8566.8436866818 
1468	 8594.04381616084 
1469	 8619.38378695576 
1470	 8646.07105506258 
1471	 8674.53530121153 
1472	 8702.21011249099 
1473	 8730.98309890372 
1474	 8754.44459681451 
1475	 8778.74933675011 
1476	 8802.85948908326 
1477	 8823.075658865 
1478	 8849.90873237882 
1479	 8872.50992910463 
1480	 8890.90228560481 
1481	 8913.47405798708 
1482	 8930.80870144713 
1483	 8945.60546193024 
1484	 8962.10554911729 
1485	 8978.75088164397 
1486	 8995.8638948852 
1487	 9014.36436417008 
1488	 9032.48167615939 
1489	 9049.34383605959 
1490	 9064.90273881987 
1491	 9081.91197927248 
1492	 9102.45355605294 
1493	 9121.11839049663 
1494	 9141.87970713093 
1495	 9161.7073312346 
1496	 9175.98048055083 
1497	 9192.28882868612 
1498	 9206.18978118231 
1499	 9217.25574436587 
1500	 9230.23473663339 
1501	 9242.59933165391 
1502	 9255.21633500657 
1503	 9268.25952665638 
1504	 9279.41695673286 
1505	 9285.82267942551 
1506	 9290.97345415098 
1507	 9296.59851411191 
1508	 9300.07087361094 
1509	 9301.33516810956 
1510	 9300.09093128536 
1511	 9297.4433447138 
1512	 9291.24398315245 
1513	 9284.32234114851 
1514	 9276.49666917389 
1515	 9262.09038483938 
1516	 9246.33736994857 
1517	 9233.75725787748 
1518	 9221.11696708079 
1519	 9207.19591732754 
1520	 9195.04794734162 
1521	 9183.2487454253 
1522	 9168.08484778723 
1523	 9155.25278652156 
1524	 9144.9091220758 
1525	 9128.8397353333 
1526	 9111.43888803018 
1527	 9096.51895789027 
1528	 9080.22017395083 
1529	 9065.39339912117 
1530	 9052.13096245956 
1531	 9036.5900500967 
1532	 9022.37895863322 
1533	 9010.25910686419 
1534	 8999.2994216102 
1535	 8989.23028108106 
1536	 8974.98496791259 
1537	 8956.68910015454 
1538	 8937.99887627212 
1539	 8918.90221809906 
1540	 8902.29627523941 
1541	 8887.569682526 
1542	 8871.99989118694 
1543	 8859.81559358233 
1544	 8845.39932505014 
1545	 8829.39108694158 
1546	 8816.56065485394 
1547	 8800.02502587787 
1548	 8786.50349427044 
1549	 8777.52173766544 
1550	 8767.20071481882 
1551	 8758.26243603179 
1552	 8749.21463647774 
1553	 8739.12396878137 
1554	 8727.7691682824 
1555	 8714.18194387477 
1556	 8700.19837328858 
1557	 8687.07913496419 
1558	 8675.14464725289 
1559	 8665.44561370742 
1560	 8656.06894934177 
1561	 8644.22303758167 
1562	 8632.60806894771 
1563	 8619.37287125815 
1564	 8603.14846090589 
1565	 8587.42957717686 
1566	 8568.65525843896 
1567	 8548.16353843091 
1568	 8528.95464260863 
1569	 8507.67682255308 
1570	 8487.96321483327 
1571	 8467.24515334536 
1572	 8442.68216876771 
1573	 8420.33911865294 
1574	 8396.45422770614 
1575	 8372.62905560503 
1576	 8349.82731925238 
1577	 8325.43085407138 
1578	 8300.93001410709 
1579	 8273.27288699723 
1580	 8246.40683212824 
1581	 8220.90153402885 
1582	 8191.99791650231 
1583	 8162.39452796639 
1584	 8131.11273675985 
1585	 8096.10658171964 
1586	 8059.87484412826 
1587	 8021.98863804479 
1588	 7987.77917688052 
1589	 7951.25700765716 
1590	 7907.23882258237 
1591	 7867.40955843986 
1592	 7821.25469860282 
1593	 7770.3505060993 
1594	 7723.74765324658 
1595	 7670.68601135944 
1596	 7617.21249922719 
1597	 7562.96330535328 
1598	 7504.11148373073 
1599	 7448.24028211871 
1600	 7391.10866338594 
1601	 7330.50477356767 
1602	 7269.45501782159 
1603	 7206.03759370811 
1604	 7139.21197867207 
1605	 7073.08693667691 
1606	 7009.80688160754 
1607	 6947.01197497207 
1608	 6885.33545361816 
1609	 6826.71887629008 
1610	 6768.54711092395 
1611	 6716.73745320734 
1612	 6673.19860695145 
1613	 6632.49803975608 
1614	 6599.74718201143 
1615	 6569.47080943523 
1616	 6541.3001843842 
1617	 6517.86836069579 
1618	 6494.89722834048 
1619	 6474.86983519089 
1620	 6456.77369941381 
1621	 6440.45474731176 
1622	 6426.94686562422 
1623	 6412.02648352606 
1624	 6396.02374092239 
1625	 6375.85489393702 
1626	 6352.84396450253 
1627	 6330.21562756038 
1628	 6304.02185206099 
1629	 6276.39804219796 
1630	 6244.782935051 
1631	 6210.30342041715 
1632	 6175.90131956016 
1633	 6135.72409082807 
1634	 6094.24590920952 
1635	 6051.00637093007 
1636	 6004.14789055585 
1637	 5956.44288641173 
1638	 5909.24197197176 
1639	 5856.47878339283 
1640	 5801.67182035077 
1641	 5740.60108707553 
1642	 5674.54798953897 
1643	 5604.47553345438 
1644	 5528.40031788087 
1645	 5449.28652006981 
1646	 5369.3737813021 
1647	 5279.95318626811 
1648	 5187.96145054283 
1649	 5083.9147913712 
1650	 4970.27651147421 
1651	 4846.41187973811 
1652	 4711.64922259733 
1653	 4568.49421568069 
1654	 4418.19766556849 
1655	 4254.78067620599 
1656	 4081.09453953395 
1657	 3896.08205585689 
1658	 3693.35106133448 
1659	 3492.37143057637 
1660	 3280.40543717095 
1661	 3075.21134573469 
1662	 2867.07755384399 
1663	 2668.06582532871 
1664	 2467.05968653009 
1665	 2285.1605812457 
1666	 2110.86378643698 
1667	 1955.60206831488 
1668	 1814.96019414171 
1669	 1692.63017260479 
1670	 1587.18032261501 
1671	 1495.32856690544 
1672	 1422.94559440177 
1673	 1357.06834113612 
1674	 1305.17180303515 
1675	 1257.30387675949 
1676	 1218.42003356054 
1677	 1185.57747944008 
1678	 1159.76422117567 
1679	 1139.0457555464 
1680	 1124.57765296589 
1681	 1118.92289372379 
1682	 1116.72236508381 
1683	 1132.41742591535 
1684	 1159.70881636906 
1685	 1205.79242563528 
1686	 1258.63817628902 
1687	 1328.52809652193 
1688	 1397.46571142761 
1689	 1478.15469190386 
1690	 1549.5576834626 
1691	 1624.4991652813 
1692	 1684.39615558411 
1693	 1738.27210519111 
1694	 1775.25898058481 
1695	 1797.06202221574 
1696	 1807.5314904926 
1697	 1805.79127189399 
1698	 1788.46363466867 
1699	 1754.88677301187 
1700	 1713.7930555812 
1701	 1652.95360359761 
1702	 1594.83369428408 
1703	 1529.96502306994 
1704	 1467.00230529084 
1705	 1402.23351717242 
1706	 1337.7921105507 
1707	 1273.74992700333 
1708	 1208.89021326484 
1709	 1140.02612930276 
1710	 1078.70386648561 
1711	 1017.87336712732 
1712	 964.579065057131 
1713	 917.791380667994 
1714	 875.000550791701 
1715	 835.093448695996 
1716	 804.917772520585 
1717	 780.962993976176 
1718	 764.737869402165 
1719	 758.180233504618 
1720	 753.932879846144 
1721	 755.019650380342 
1722	 761.454953649376 
1723	 771.05234082172 
1724	 791.166699166052 
1725	 819.272285174346 
1726	 853.347473418026 
1727	 893.499768417686 
1728	 933.728288490081 
1729	 977.960875728869 
1730	 1029.22259404488 
1731	 1084.00405924226 
1732	 1149.81376380118 
1733	 1209.35965776409 
1734	 1269.33950439827 
1735	 1324.69565222706 
1736	 1376.13021907487 
1737	 1423.96005588258 
1738	 1470.32716141013 
1739	 1509.93082775906 
1740	 1544.84919356792 
1741	 1573.82554681525 
1742	 1595.85554449652 
1743	 1614.3022559022 
1744	 1626.0637661369 
1745	 1637.87375505083 
1746	 1646.52460898886 
1747	 1653.84585906087 
1748	 1658.10339175735 
1749	 1665.37792368331 
1750	 1669.80067673682 
1751	 1680.42389009642 
1752	 1692.87080234462 
1753	 1713.59293598811 
1754	 1739.07642923443 
1755	 1771.25877450432 
1756	 1360.40507936723 
1757	 1413.08359616397 
1758	 1467.43922216996 
1759	 1523.84201980745 
1760	 1590.61238511326 
1761	 1639.43087026471 
1762	 1692.41814441907 
1763	 1742.05751951467 
1764	 1790.02361168352 
1765	 1827.34617566708 
1766	 1878.09386736144 
1767	 1940.16019085604 
1768	 1990.5423018493 
1769	 2046.38497907478 
1770	 2089.77593506001 
1771	 2115.41027560054 
1772	 2148.27791195643 
1773	 2179.4815508538 
1774	 2201.8986966038 
1775	 2237.18826793762 
1776	 2282.36752517882 
1777	 2315.40598622463 
1778	 2345.90776357577 
1779	 2380.11092959334 
1780	 2417.19549612462 
1781	 2449.557268006 
1782	 2464.29209732766 
1783	 2473.09190123238 
1784	 2483.4388786402 
1785	 2478.9324581297 
1786	 2480.16927034576 
1787	 2501.5495683419 
1788	 2536.75898437328 
1789	 2558.59436664944 
1790	 2560.01375068989 
1791	 2562.73256089008 
1792	 2554.74475145603 
1793	 2542.69739989408 
1794	 2540.95539454788 
1795	 2548.91382665172 
1796	 2557.38934222656 
1797	 2564.40502079233 
1798	 2577.84291050915 
1799	 2594.14727459506 
1800	 2597.71548525476 
1801	 2589.79889935068 
1802	 2582.15383722175 
1803	 2575.39889158887 
1804	 2554.5192018406 
1805	 2551.56122643319 
1806	 2556.54395350149 
1807	 2567.17535591002 
1808	 2587.96205152324 
1809	 2615.89314382049 
1810	 2641.22373236663 
1811	 2668.95267190789 
1812	 2687.7621237955 
1813	 2697.93251243118 
1814	 2710.3314634549 
1815	 2709.92174330458 
1816	 2724.85976502014 
1817	 2743.62393057668 
1818	 2771.03139544859 
1819	 2796.72566231048 
1820	 2845.60142264893 
1821	 2885.32271252495 
1822	 2926.63920321372 
1823	 2966.44609092426 
1824	 3018.04523776069 
1825	 3049.58589306022 
1826	 3064.52892917048 
1827	 3088.65006938498 
1828	 3100.27022817196 
1829	 3119.82414488198 
1830	 3151.55733506985 
1831	 3200.50172649223 
1832	 3237.64297466609 
1833	 3276.49826351591 
1834	 3317.34581731787 
1835	 3355.60326709653 
1836	 3396.40828687715 
1837	 3442.58402768514 
1838	 3488.41128265196 
1839	 3542.58163062615 
1840	 3580.54986071664 
1841	 3620.0679963935 
1842	 3655.54088548768 
1843	 3696.96856165539 
1844	 3740.14028528058 
1845	 3776.48516055096 
1846	 3814.89604688341 
1847	 3850.70702091893 
1848	 3884.22419080594 
1849	 3905.04381925164 
1850	 3928.97588354699 
1851	 3954.60337194337 
1852	 3970.98098494832 
1853	 3975.51436852992 
1854	 3987.2657352149 
1855	 3999.12442229784 
1856	 4007.71628381457 
1857	 4014.50039064349 
1858	 4019.89867578889 
1859	 4028.28041755027 
1860	 4039.9632562378 
1861	 4058.15469006015 
1862	 4064.40774584225 
1863	 4065.50428808414 
1864	 4057.3108634208 
1865	 4051.81706109794 
1866	 4038.68185528632 
1867	 4032.63064901952 
1868	 4024.28984514183 
1869	 4028.98617781569 
1870	 4036.70792340243 
1871	 4052.33022943514 
1872	 4077.11224628358 
1873	 4080.01348965408 
1874	 4078.67293821583 
1875	 4087.33965472056 
1876	 4088.2943431075 
1877	 4083.9881407593 
1878	 4086.37512801091 
1879	 4081.73062376797 
1880	 4052.61407446504 
1881	 4009.58402301013 
1882	 3952.07390683407 
1883	 3887.97421423335 
1884	 3808.40261131188 
1885	 3724.10315952557 
1886	 3648.21557396234 
1887	 3565.31827392464 
1888	 3476.75903737797 
1889	 3388.64055644521 
1890	 3295.97881682718 
1891	 3198.87511236143 
1892	 3109.55174499829 
1893	 3025.19429930814 
1894	 2955.63082869561 
1895	 2890.10764388851 
1896	 2826.48566902201 
1897	 2775.23943954545 
1898	 2734.83344308827 
1899	 2695.11938243471 
1900	 2660.89835276341 
1901	 2636.52799332721 
1902	 2619.51465156892 
1903	 2615.48977690653 
1904	 2617.98811986918 
1905	 2635.50299288945 
1906	 2657.69103829259 
1907	 2679.82864816894 
1908	 2710.57943616758 
1909	 2759.20934964698 
1910	 2793.92523271935 
1911	 2830.81351696854 
1912	 2861.21125321314 
1913	 2882.00801817301 
1914	 2899.84950531147 
1915	 2937.68005876882 
1916	 2980.08598481519 
1917	 3031.91987053658 
1918	 3093.17994138172 
1919	 3142.5314668734 
1920	 3186.3475509645 
1921	 3225.52948750779 
1922	 3255.33285506046 
1923	 3295.68199093199 
1924	 3329.63070240073 
1925	 3375.44445402322 
1926	 3439.43759578403 
1927	 3495.79643014666 
1928	 3538.55465116267 
1929	 3582.97405945486 
1930	 3620.70616055329 
1931	 3640.76137559331 
1932	 3673.25126844569 
1933	 3713.96156644584 
1934	 3747.03177678359 
1935	 3783.9526686678 
1936	 3811.043241658 
1937	 3829.69011608576 
1938	 3846.82074617013 
1939	 3860.36794206155 
1940	 3864.76372496249 
1941	 3873.19807408552 
1942	 3882.99226507955 
1943	 3885.91935262259 
1944	 3885.62123067297 
1945	 3884.65731911783 
1946	 3869.27170803294 
1947	 3873.51906889218 
1948	 3883.92179710134 
1949	 3899.05058875126 
1950	 3939.83302020854 
1951	 3960.22479461901 
1952	 3973.19983745253 
1953	 3982.71828048707 
1954	 3991.36332130868 
1955	 3985.78636943625 
1956	 3994.75483801386 
1957	 4012.06438547576 
1958	 4025.26876525024 
1959	 4042.30042367498 
1960	 4054.7732387452 
1961	 4068.24105698319 
1962	 4075.29491301633 
1963	 4074.95782907661 
1964	 4077.22576299332 
1965	 4074.75329658799 
1966	 4076.56368028552 
1967	 4073.37249992632 
1968	 4073.85879717842 
1969	 4064.26813301585 
1970	 4044.15025227112 
1971	 4031.58969928082 
1972	 4016.81866217712 
1973	 4004.2893238805 
1974	 3999.70366040183 
1975	 3985.8458785036 
1976	 3964.22433047859 
1977	 3946.71421707443 
1978	 3929.32775127389 
1979	 3909.95411795474 
1980	 3887.06791237025 
1981	 3868.36779344947 
1982	 3841.20340754428 
1983	 3800.2434190898 
1984	 3772.75954934048 
1985	 3747.71562036972 
1986	 3722.10835747739 
1987	 3707.52359950185 
1988	 3681.35293434053 
1989	 3644.26459295702 
1990	 3614.41393851761 
1991	 3577.56169840102 
1992	 3552.45769607889 
1993	 3529.83172021909 
1994	 3514.12131906595 
1995	 3495.48409700915 
1996	 3479.40371991368 
1997	 3457.66626862481 
1998	 3431.809494465 
1999	 3410.40385036507 
2000	 3390.00431369612 
2001	 3367.56070400164 
2002	 3349.84976777325 
2003	 3326.48932455752 
2004	 3295.17581301797 
2005	 3267.48409383183 
2006	 3241.61489458809 
2007	 3220.83455331507 
2008	 3203.34542057559 
2009	 3182.34480742517 
2010	 3158.422315537 
2011	 3130.56474194039 
2012	 3099.93962147929 
2013	 3064.52886941951 
2014	 3032.69862236321 
2015	 2990.66736410185 
2016	 2970.93212224001 
2017	 2964.04731018851 
2018	 2958.02782256483 
2019	 2969.3265730268 
2020	 2974.57042937985 
2021	 2966.92527385843 
2022	 2952.63177924685 
2023	 2934.13127656664 
2024	 2916.5368253885 
2025	 2899.81820247668 
2026	 2885.45915322428 
2027	 2868.51942992813 
2028	 2847.03646803504 
2029	 2828.50451359801 
2030	 2810.76386510023 
2031	 2796.66190118228 
2032	 2784.245760269 
2033	 2776.50716165636 
2034	 2764.5227378593 
2035	 2747.42477452935 
2036	 2728.97175938821 
2037	 2711.12037670645 
2038	 2702.07941871403 
2039	 2696.83263450126 
2040	 2683.84137055145 
2041	 2669.38234123582 
2042	 2656.73233439418 
2043	 2639.43152302157 
2044	 2623.5871296937 
2045	 2611.29817439333 
2046	 2598.98265611754 
2047	 2589.80024596867 
2048	 2576.00844456017 
2049	 2563.60608971647 
2050	 2544.03473386041 
2051	 2518.65601898191 
2052	 2482.11001620843 
2053	 2450.50106072805 
2054	 2434.01116546223 
2055	 2422.20129071686 
2056	 2407.45542653637 
2057	 2392.53354211365 
2058	 2370.92791169747 
2059	 2345.83278519364 
2060	 2311.41088782829 
2061	 2285.75737513326 
2062	 2260.55144110921 
2063	 2235.86476611412 
2064	 2213.78850026409 
2065	 2195.46403470648 
2066	 2168.92109011299 
2067	 2141.32518264259 
2068	 2122.19144942738 
2069	 2093.40767655788 
2070	 2056.02904398861 
2071	 2017.33596908043 
2072	 1971.29290264087 
2073	 1924.68807764626 
2074	 1888.41449359773 
2075	 1852.61976922058 
2076	 1809.44654060048 
2077	 1762.75185981207 
2078	 1713.06813003678 
2079	 1654.72966270892 
2080	 1599.76810118498 
2081	 1546.88033333187 
2082	 1489.75738622338 
2083	 1418.39226908194 
2084	 1357.79739603919 
2085	 1294.40911375338 
2086	 1228.90294565425 
2087	 1180.94944233581 
2088	 1137.27736790189 
2089	 1092.85320968664 
2090	 1053.15135317854 
2091	 1022.80897810527 
2092	 983.243663029872 
2093	 942.571010332768 
2094	 907.200993768305 
2095	 874.298872801081 
2096	 840.78184960375 
2097	 815.684324924794 
2098	 796.110246126776 
2099	 781.880380136735 
2100	 770.928595185648 
2101	 759.057662358019 
2102	 752.654383795955 
2103	 736.760814929081 
2104	 717.341896281165 
2105	 706.883260985011 
2106	 690.935520409759 
2107	 679.890044836574 
2108	 673.189532221291 
2109	 651.412836455301 
2110	 637.246024601546 
2111	 622.321589715587 
2112	 607.628093835853 
2113	 600.674401903687 
2114	 588.996707244889 
2115	 568.448217551971 
2116	 563.769235212851 
2117	 562.892775738803 
2118	 568.864339291783 
2119	 587.131172661992 
2120	 609.841363539356 
2121	 614.409958905984 
2122	 620.500686418984 
2123	 622.800752847219 
2124	 626.459269722164 
2125	 649.941710298918 
2126	 672.47255038765 
2127	 706.053868309138 
2128	 737.567412597374 
2129	 763.800149576964 
2130	 790.003520543148 
2131	 808.582502375338 
2132	 832.932174718366 
2133	 851.332355448531 
2134	 876.438883895138 
2135	 897.241610022871 
2136	 912.177292801772 
2137	 926.394775867196 
2138	 940.932324144244 
2139	 950.100620414524 
2140	 955.888520574045 
2141	 966.802332353461 
2142	 964.627444945935 
2143	 964.053068518018 
2144	 952.779058884125 
2145	 944.543365204333 
2146	 952.781452422542 
2147	 957.255062725638 
2148	 970.706113637769 
2149	 980.371860576744 
2150	 977.39704814039 
2151	 973.243819911622 
2152	 971.709624319152 
2153	 973.824539982762 
2154	 970.179264498673 
2155	 977.541183515815 
2156	 984.642067288913 
2157	 990.142959363716 
2158	 1002.22489224151 
2159	 1025.72981316029 
2160	 1035.91306255666 
2161	 1043.17087602827 
2162	 1046.74882776113 
2163	 1042.95342350781 
2164	 1044.97944911591 
2165	 1037.93004967306 
2166	 1049.67517205565 
2167	 1058.37013360129 
2168	 1052.68347289832 
2169	 1057.57295646528 
2170	 1056.82957067081 
2171	 1051.50848164407 
2172	 1047.81433874095 
2173	 1059.07386984367 
2174	 1067.42635245829 
2175	 1067.66669201909 
2176	 1077.2152097463 
2177	 1064.49759888892 
2178	 1043.82718766179 
2179	 1035.76581225016 
2180	 1040.19751013086 
2181	 1050.77077679444 
2182	 1062.84163608307 
2183	 1071.30148569277 
2184	 1077.7980312274 
2185	 1071.92066159273 
2186	 1061.20277335272 
2187	 1049.48207172722 
2188	 1024.45684091221 
2189	 1017.11355253956 
2190	 1013.91390388448 
2191	 1009.47470284052 
2192	 1011.43150902567 
2193	 1006.31045840617 
2194	 994.702143624421 
2195	 983.556065431278 
2196	 975.97932419568 
2197	 974.715872210322 
2198	 975.460115780246 
2199	 968.112162404187 
2200	 958.579897020742 
2201	 948.546818231278 
2202	 931.154222071597 
2203	 918.40925359076 
2204	 907.335540047363 
2205	 885.56327863654 
2206	 874.170564072698 
2207	 872.11831546179 
2208	 863.614798949527 
2209	 857.079841200751 
2210	 842.032407721799 
2211	 816.319077374345 
2212	 794.060491656346 
2213	 768.017302128434 
2214	 742.834457235083 
2215	 722.45110560352 
2216	 692.21517816588 
2217	 653.994452445558 
2218	 622.093845895047 
2219	 588.096765017096 
2220	 553.679984737386 
2221	 528.34672726223 
2222	 495.625392568654 
2223	 455.520614271944 
2224	 415.577261316733 
2225	 376.666109246744 
2226	 340.839296175253 
2227	 315.60606682762 
2228	 295.725531302071 
2229	 266.896935235709 
2230	 246.662670924204 
2231	 221.276059773823 
2232	 194.680640925445 
2233	 179.940679719434 
2234	 158.215095707175 
2235	 134.515054285582 
2236	 106.835764649164 
2237	 74.4357028619804 
2238	 50.6939902527001 
2239	 38.1882551518425 
2240	 27.8882912197895 
2241	 30.1657355363342 
2242	 33.436400699359 
2243	 28.2959470108406 
2244	 16.8415332488415 
2245	 14.4060979913317 
2246	 9.47072567383401 
2247	 5.09324807290622 
2248	 10.8687747617988 
2249	 4.98777551789533 
2250	-13.6845970156291 
2251	-21.2604834567782 
2252	-30.6667264936278 
2253	-28.5965648665827 
2254	-12.6191624345773 
2255	-3.21653502783096 
2256	 15.4669732983488 
2257	 15.3544501258782 
2258	 6.86230559680503 
2259	 1.13835384228672 
2260	-14.3864480178006 
2261	-19.9965695974995 
2262	-14.3275837623725 
2263	-4.3049697615283 
2264	 18.167322003262 
2265	 31.9814543724208 
2266	 39.1904870227386 
2267	 43.8357494712371 
2268	 43.0980272501797 
2269	 45.9442252175405 
2270	 44.4890094851599 
2271	 38.2726240269766 
2272	 26.3599013392848 
2273	 11.9004092082048 
2274	 5.22705402713477 
2275	 0.156504923375204 
2276	-1.44046220440929 
2277	 8.31496642264205 
2278	 13.4263055521894 
2279	 16.1800196171316 
2280	 20.0039997015349 
2281	 13.4679696576537 
2282	 9.44744112007284 
2283	 11.285705596642 
2284	 12.928379167817 
2285	 10.7179113567127 
2286	 7.65343679474552 
2287	 2.14267361391855 
2288	-3.52510776411869 
2289	-15.2821590627592 
2290	-11.8342235982399 
2291	 3.61012026843945 
2292	 13.335314201205 
2293	 29.541946813403 
2294	 32.9795262566419 
2295	 28.6150296942838 
2296	 22.4993426988952 
2297	 7.54851912641356 
2298	 6.10483810113662 
2299	 6.86195296640152 
2300	 5.05228227795371 
2301	 11.8010917400114 
2302	 12.9362017418615 
2303	 6.14117560645041 
2304	 7.7771133727374 
2305	 14.7098486778969 
2306	 18.6754772463502 
2307	 26.3188086561013 
2308	 26.4304295531124 
2309	 24.7393239572746 
2310	 14.8130251364226 
2311	 0.12482647024826 
2312	-5.41820276991272 
2313	-12.0058841546848 
2314	-19.5772970899895 
2315	-22.9006889004892 
2316	-24.2748740600157 
2317	-25.6484181164401 
2318	-15.8504065564061 
2319	-9.90191421446827 
2320	-6.80482172888958 
2321	 0.939264077511875 
2322	-9.62637896652064 
2323	-6.70479897951349 
2324	-0.94633889823199 
2325	-8.1747308716435 
2326	-0.152986877045884 
2327	 0.456534589869077 
2328	-1.51235525086594 
2329	 9.06046700288722 
2330	 16.984332285423 
2331	 19.7295053151026 
2332	 27.8428249740038 
2333	 31.7372053348903 
2334	 32.5299998570015 
2335	 34.2968626091401 
2336	 22.0199739722152 
2337	 6.8395893869831 
2338	-4.30638105579032 
2339	-13.5162095436749 
2340	-12.8989382801798 
2341	-7.37829250649034 
2342	-4.87999894539038 
2343	-3.9357033276278 
2344	-1.6537250614824 
2345	-0.261199079444428 
2346	 2.72315126319166 
2347	 5.8085972768969 
2348	 6.51197085226927 
2349	 9.32975665255807 
2350	 16.1702764572921 
2351	 25.946504413784 
2352	 34.3149587625384 
2353	 40.8554468900739 
2354	 33.2487330489501 
2355	 21.3314602520486 
2356	 8.89145960911113 
2357	-4.3068425819417 
2358	-5.56187543413775 
2359	-6.2494004807786 
2360	 3.63356222259912 
2361	 11.7310320350356 
2362	 13.910990150823 
2363	 23.9684471470602 
2364	 26.9075837636687 
2365	 32.5563436708332 
2366	 33.7167055249276 
2367	 23.0310626346504 
2368	 15.5138176554117 
2369	 6.69696917293434 
2370	-0.254906028255467 
2371	 0.801422817723332 
2372	 3.1117192920226 
2373	 9.47454405120842 
2374	 17.6914135867796 
2375	 20.6972819289707 
2376	 22.8604478483826 
2377	 25.9159804330023 
2378	 28.9476234854927 
2379	 30.3793655170595 
2380	 33.1344616313724 
2381	 33.1353892586657 
2382	 34.3088429467848 
2383	 44.2132361125328 
2384	 55.4486289144396 
2385	 54.7667587294629 
2386	 52.587036486842 
2387	 51.4922955544384 
2388	 43.1059196286131 
2389	 44.1915922522131 
2390	 37.7986030420602 
2391	 27.3198355021377 
2392	 21.6125325593098 
2393	 11.0449452016802 
2394	 17.9454617349024 
2395	 34.0291916515676 
2396	 43.8281234802004 
2397	 50.1456487693141 
2398	 43.326048223501 
2399	 34.5716415527379 
2400	 31.7302739550809 
2401	 30.4943316700914 
2402	 38.2764937789811 
2403	 40.2375935104757 
2404	 33.7635951480777 
2405	 27.8559259124211 
2406	 14.798144368637 
2407	-3.24550123538399 
2408	-15.4444398417271 
2409	-27.4569319415256 
2410	-34.703937269745 
2411	-24.2996156326912 
2412	-14.7251936421408 
2413	-1.48299868036531 
2414	 13.942864673118 
2415	 13.8048639433721 
2416	 8.60681978662558 
2417	 0.536276878684215 
2418	-12.5432150731593 
2419	-24.4097660013815 
2420	-35.1196239527255 
2421	-42.6993619425345 
2422	-42.052848996168 
2423	-37.5875004321115 
2424	-20.3497019616377 
2425	-4.41011938933047 
2426	 4.94297698374732 
2427	 19.7844021589312 
2428	 18.9150178811346 
2429	 17.8924462503565 
2430	 27.0049244536856 
2431	 21.314401187087 
2432	 15.4838377865722 
2433	 17.9687593591841 
2434	 4.55746702655974 
2435	-2.63648886418838 
2436	-0.914151343619463 
2437	-9.88628232365512 
2438	-10.4325674377417 
2439	-11.9058648248288 
2440	-11.2043996080328 
2441	-7.08805274915499 
2442	-10.7896119536721 
2443	-4.98482452393036 
2444	 0.298378409899992 
2445	 8.74359959280316 
2446	 14.2835301273527 
2447	 13.5180961085964 
2448	 17.008820268599 
2449	 1.76750710872837 
2450	 0.43326794720579 
2451	 4.5310929586806 
2452	-3.78141498829623 
2453	 5.5226476413927 
2454	 3.51199462513441 
2455	-4.13784112380283 
2456	-2.21749353571012 
2457	-7.40413284102991 
2458	-10.2510965030749 
2459	-5.76377481290406 
2460	-1.27943298027195 
2461	 0.198389609541115 
2462	-2.8859087848486 
2463	-6.82060664257221 
2464	-14.0885001220332 
2465	-0.925947171636067 
2466	 5.23841699189936 
2467	 19.3517147739702 
2468	 16.5198694080456 
2469	-0.412198979848336 
2470	-8.1346789566124 
2471	-9.15614488735183 
2472	-11.8612042258571 
2473	-10.3755306905058 
2474	-15.6157921981321 
2475	-32.7367406697011 
2476	-37.2047294103422 
2477	-39.8043926280461 
2478	-47.148811261295 
2479	-41.1514999058469 
2480	-38.0200149739149 
2481	-36.673305836579 
2482	-15.5297990577184 
2483	 1.64809864181386 
2484	 9.23178385648195 
2485	 18.1044854777962 
2486	 9.83750737707909 
2487	-2.81655568126737 
2488	-4.99639224466082 
2489	-10.4749742766842 
2490	-6.31959574835366 
2491	 7.5678576627725 
2492	 19.167711970295 
2493	 40.8122519571801 
2494	 48.627487937939 
2495	 44.0700351509838 
2496	 41.0659425135265 
2497	 21.5549962575675 
2498	 20.5686375454237 
2499	 31.4732659032838 
2500	 28.9100424801212 
