Wavelength	Reference_WhitePLA00000.asd
350	 18.8318553225521 
351	 21.0409953327715 
352	 23.3117672893886 
353	 23.1695234173598 
354	 24.9815283888826 
355	 26.5135905609116 
356	 26.0848978516973 
357	 26.885566335052 
358	 28.4280735554358 
359	 30.0237751777788 
360	 30.7901698826463 
361	 31.9034811215188 
362	 32.8787532740084 
363	 33.2917750910083 
364	 34.5811116811124 
365	 36.6313199216774 
366	 38.2473336719802 
367	 36.759081291313 
368	 37.6083554614368 
369	 39.9388298251157 
370	 41.0388709403396 
371	 41.435044015151 
372	 41.5995346760905 
373	 42.3028573655555 
374	 45.1546395123076 
375	 47.7631361161052 
376	 49.0498636330262 
377	 48.7901383134162 
378	 49.3579395576436 
379	 50.5945108375674 
380	 52.0710389853655 
381	 53.8225093108994 
382	 56.7192157921312 
383	 59.8896912324235 
384	 60.9757164856035 
385	 62.7748578615051 
386	 65.4532310052689 
387	 68.6644826858284 
388	 73.12647148372 
389	 77.6918914441468 
390	 81.7029960695243 
391	 85.2189772718233 
392	 89.265169035185 
393	 94.6155697423744 
394	 101.603462178657 
395	 107.772663558039 
396	 114.248160099298 
397	 122.053313556773 
398	 130.763393425891 
399	 140.276043996214 
400	 150.464497601584 
401	 161.240439072087 
402	 174.499205096893 
403	 189.405899020954 
404	 204.572170870802 
405	 219.388060331815 
406	 235.555686166783 
407	 253.975415312123 
408	 274.325799954322 
409	 296.051433912811 
410	 318.788156988035 
411	 342.397851718103 
412	 368.101884588341 
413	 394.444238719373 
414	 420.493426393136 
415	 447.661373213922 
416	 476.082361069943 
417	 505.466703389973 
418	 535.098362137639 
419	 563.984226861042 
420	 592.196269010371 
421	 620.022185565251 
422	 646.594106795361 
423	 673.85477750683 
424	 702.244207444073 
425	 729.200753203972 
426	 754.972653771221 
427	 780.143239692264 
428	 805.519663864642 
429	 829.390908727475 
430	 851.762893646281 
431	 873.119928196634 
432	 894.261757066922 
433	 915.293678617416 
434	 935.93780798504 
435	 955.533187963359 
436	 971.975417390646 
437	 987.97881990612 
438	 1007.36997544532 
439	 1024.62558049649 
440	 1040.53546586091 
441	 1056.27156134278 
442	 1071.74428776531 
443	 1087.13949599558 
444	 1102.56780552341 
445	 1118.07162605999 
446	 1134.02378264321 
447	 1149.12894403748 
448	 1162.39026779073 
449	 1178.20064383499 
450	 1192.20046078757 
451	 1202.97817094817 
452	 1216.68069766778 
453	 1231.85938396049 
454	 1247.3222907308 
455	 1261.70973402048 
456	 1274.99037680231 
457	 1288.47741676402 
458	 1303.66322107117 
459	 1321.32946486844 
460	 1338.11597363062 
461	 1353.31928240695 
462	 1371.36871944183 
463	 1389.48026935355 
464	 1407.17194479141 
465	 1425.15326558059 
466	 1446.3956220329 
467	 1468.39905046204 
468	 1488.91567968022 
469	 1511.54691850349 
470	 1534.88518728607 
471	 1558.45173687247 
472	 1583.40484688749 
473	 1608.76581579219 
474	 1635.3338874018 
475	 1664.60375195738 
476	 1695.47851767055 
477	 1726.53641586943 
478	 1757.05814451012 
479	 1788.85497780401 
480	 1821.97204046779 
481	 1856.06439213291 
482	 1890.11448930359 
483	 1926.86382641458 
484	 1965.14869772214 
485	 2002.39279343448 
486	 2041.53126521813 
487	 2082.78374404837 
488	 2125.74284981762 
489	 2169.51357811644 
490	 2214.23448963769 
491	 2260.52048825377 
492	 2309.82541223385 
493	 2358.63933732474 
494	 2408.0401966554 
495	 2460.66551977049 
496	 2512.90072314799 
497	 2566.04260999848 
498	 2621.39140601243 
499	 2677.71939924385 
500	 2735.31481800943 
501	 2794.05454656767 
502	 2853.35866361691 
503	 2911.51387442328 
504	 2970.7697509047 
505	 3034.55126621127 
506	 3097.68333799927 
507	 3159.62820746847 
508	 3221.61481476373 
509	 3288.0526247816 
510	 3356.56251501656 
511	 3425.55763437868 
512	 3494.34266843305 
513	 3564.55164747946 
514	 3636.08853989701 
515	 3708.39942655414 
516	 3785.314608287 
517	 3862.50908638943 
518	 3936.53657266649 
519	 4011.74299498542 
520	 4088.69361839133 
521	 4167.45195070679 
522	 4247.66852544995 
523	 4327.5327312548 
524	 4407.081752059 
525	 4487.37990029056 
526	 4569.60350548828 
527	 4652.67890897175 
528	 4735.16179508322 
529	 4815.87185034355 
530	 4897.16756951639 
531	 4979.69511096042 
532	 5061.38021256514 
533	 5142.26509127055 
534	 5222.02926924093 
535	 5300.45525853698 
536	 5381.11621184196 
537	 5460.22494118731 
538	 5534.49591916028 
539	 5609.81711343541 
540	 5686.53112653282 
541	 5763.36581486502 
542	 5836.22040306247 
543	 5909.18075941227 
544	 5982.10458382726 
545	 6052.52058305839 
546	 6123.24844010813 
547	 6193.84541022419 
548	 6263.17714673399 
549	 6330.87744644493 
550	 6397.79360706152 
551	 6463.83854764523 
552	 6526.49266160366 
553	 6588.92490073018 
554	 6651.36181927118 
555	 6711.91005641023 
556	 6769.58738236095 
557	 6824.37173930521 
558	 6876.68330144986 
559	 6926.77326347891 
560	 6976.72437364978 
561	 7025.45697163855 
562	 7063.61982495452 
563	 7096.75530680304 
564	 7125.57144013529 
565	 7146.56099178209 
566	 7164.03539057436 
567	 7175.86387425207 
568	 7178.53267558781 
569	 7177.1230976144 
570	 7168.61452923234 
571	 7152.73760836089 
572	 7140.83151834118 
573	 7124.10891225777 
574	 7100.43364888832 
575	 7075.62050533207 
576	 7042.70066929604 
577	 7003.9737177679 
578	 6964.79666731159 
579	 6916.88240602316 
580	 6865.35339274176 
581	 6816.04966693597 
582	 6767.90097988635 
583	 6728.6951746197 
584	 6696.97451065021 
585	 6656.39656318574 
586	 6616.43956614547 
587	 6577.01746219835 
588	 6534.41493630315 
589	 6497.60783852317 
590	 6466.49484698773 
591	 6440.21795599863 
592	 6424.94151043943 
593	 6414.96419211118 
594	 6406.37220138058 
595	 6398.09782079102 
596	 6399.51631116559 
597	 6414.89714116527 
598	 6444.96620744126 
599	 6476.81884324714 
600	 6508.27484745846 
601	 6541.15407194841 
602	 6581.29709872735 
603	 6620.11821637369 
604	 6653.86084925434 
605	 6692.54935542825 
606	 6733.13116686963 
607	 6779.81651363749 
608	 6843.55281930655 
609	 6920.40816752267 
610	 7008.17815969139 
611	 7103.53671278655 
612	 7196.01769610666 
613	 7285.71004602281 
614	 7372.41361940818 
615	 7449.08953544216 
616	 7523.28686419593 
617	 7597.41829652963 
618	 7667.4310684331 
619	 7741.23572176049 
620	 7818.91733825032 
621	 7897.12549707393 
622	 7975.60632548633 
623	 8055.04138411925 
624	 8136.17794420594 
625	 8219.67739481048 
626	 8301.05086901714 
627	 8378.66565994133 
628	 8455.73817623666 
629	 8528.96186263085 
630	 8596.98594606816 
631	 8659.62415454029 
632	 8722.76736859677 
633	 8781.6702725921 
634	 8832.09057820615 
635	 8884.88795200378 
636	 8937.60778620214 
637	 8987.7863385259 
638	 9034.05902584206 
639	 9080.38859808965 
640	 9127.5652049563 
641	 9174.18725525762 
642	 9226.56601261982 
643	 9280.71473224498 
644	 9331.21928075314 
645	 9385.24392480119 
646	 9440.7262254316 
647	 9496.64392454521 
648	 9557.71410230965 
649	 9615.19853224545 
650	 9670.66188312728 
651	 9736.07518233269 
652	 9800.80604233682 
653	 9866.17849744652 
654	 9936.77975119869 
655	 10008.2489242004 
656	 10078.1458730249 
657	 10146.6132012613 
658	 10220.8265993414 
659	 10296.6291981871 
660	 10372.914464388 
661	 10452.6053994909 
662	 10532.0160167339 
663	 10611.410952294 
664	 10692.6248813703 
665	 10773.9598372739 
666	 10855.3751105573 
667	 10938.0165052263 
668	 11026.6041070142 
669	 11116.9662271609 
670	 11207.0751927819 
671	 11297.9886087423 
672	 11394.5662683923 
673	 11494.4031060467 
674	 11591.1897207717 
675	 11693.4149588327 
676	 11796.4961582742 
677	 11896.386125008 
678	 12006.3184063512 
679	 12116.7108692479 
680	 12223.1177335827 
681	 12333.3496989719 
682	 12442.1130962831 
683	 12550.347698918 
684	 12662.9731805305 
685	 12777.3313850337 
686	 12893.0529872664 
687	 13009.6862818488 
688	 13123.010195686 
689	 13238.4559808334 
690	 13358.4080671677 
691	 13477.3613234565 
692	 13592.6104837608 
693	 13705.9762464236 
694	 13823.5703192584 
695	 13932.1371154473 
696	 14037.5086334571 
697	 14149.1812782167 
698	 14256.0620944705 
699	 14360.4967566032 
700	 14463.6963582888 
701	 14559.5597542494 
702	 14655.1128049676 
703	 14749.5487534165 
704	 14834.0099068681 
705	 14921.9156256812 
706	 15008.2863494011 
707	 15083.6707831132 
708	 15160.963884126 
709	 15235.9568341742 
710	 15304.6586518139 
711	 15370.0599044496 
712	 15431.9753942559 
713	 15491.2954341338 
714	 15550.3412413721 
715	 15605.3374316301 
716	 15657.3543128576 
717	 15709.316695238 
718	 15761.9780016702 
719	 15813.1230488299 
720	 15860.9003098829 
721	 15906.4061723325 
722	 15947.3649882046 
723	 15985.4266114471 
724	 16027.4595141525 
725	 16069.3561356028 
726	 16112.6689487411 
727	 16160.0063281981 
728	 16200.5657758656 
729	 16239.6354257999 
730	 16281.7010956602 
731	 16318.2617924697 
732	 16359.6933943871 
733	 16406.9124170797 
734	 16448.189735014 
735	 16486.3081161002 
736	 16522.3590866352 
737	 16556.7972443754 
738	 16583.8762163562 
739	 16607.2015413978 
740	 16630.3881668202 
741	 16650.8641883042 
742	 16672.6350700652 
743	 16695.4928577361 
744	 16713.2480393124 
745	 16731.6657569012 
746	 16746.8719051832 
747	 16752.5588314945 
748	 16766.1128814768 
749	 16778.546728918 
750	 16781.8196109095 
751	 16786.5207983231 
752	 16787.7339243523 
753	 16784.9773542583 
754	 16783.8287830528 
755	 16780.9981324023 
756	 16774.2862403115 
757	 16761.4954077905 
758	 16740.0663260444 
759	 16706.3373614172 
760	 16665.6810050194 
761	 16652.8213403067 
762	 16643.4513012331 
763	 16628.4274346607 
764	 16616.3674971297 
765	 16601.9131237196 
766	 16583.7529950614 
767	 16561.4541404841 
768	 16528.9170985559 
769	 16495.0814399536 
770	 16465.7266180369 
771	 16431.6622392472 
772	 16398.7682120446 
773	 16366.1461298601 
774	 16325.7808478897 
775	 16286.0482118835 
776	 16247.7739711868 
777	 16208.8589994775 
778	 16165.4480325824 
779	 16118.4159107554 
780	 16068.762452862 
781	 16015.473680153 
782	 15965.2326335951 
783	 15915.9138269738 
784	 15857.8812961952 
785	 15801.2301340001 
786	 15744.705106124 
787	 15685.0129034668 
788	 15626.2988986793 
789	 15566.7075589438 
790	 15505.8853356588 
791	 15448.2124321734 
792	 15386.4887579417 
793	 15319.2063911262 
794	 15248.4707788418 
795	 15176.1686291926 
796	 15104.0005953375 
797	 15033.29732397 
798	 14964.6520314595 
799	 14897.2629829195 
800	 14829.1629853103 
801	 14756.0592166367 
802	 14683.6642720941 
803	 14613.6966166434 
804	 14545.7896733438 
805	 14476.7101194436 
806	 14405.0261579081 
807	 14330.2620684821 
808	 14253.0072375502 
809	 14177.1986615168 
810	 14102.5169591665 
811	 14023.8032177507 
812	 13950.1133597258 
813	 13877.4072028195 
814	 13799.0112554877 
815	 13723.3108206267 
816	 13647.2533978439 
817	 13569.724880498 
818	 13497.2639073832 
819	 13420.2584077186 
820	 13339.2767193288 
821	 13261.3252700505 
822	 13174.7777383905 
823	 13087.0687728127 
824	 13006.9249827897 
825	 12929.431834538 
826	 12853.3663774388 
827	 12778.4985333899 
828	 12706.4323980948 
829	 12628.7629541929 
830	 12544.5063948968 
831	 12455.3834185008 
832	 12355.0790199293 
833	 12253.5353916012 
834	 12159.160155865 
835	 12070.9185256066 
836	 11990.3885833192 
837	 11918.1956238642 
838	 11854.2004534809 
839	 11801.6861264829 
840	 11753.2021982647 
841	 11699.709500258 
842	 11639.7542840856 
843	 11570.5269829481 
844	 11494.4335009361 
845	 11421.8587081663 
846	 11348.5188801871 
847	 11273.8209596738 
848	 11198.4803710275 
849	 11124.5611664825 
850	 11050.5595133369 
851	 10975.3816102905 
852	 10899.8547908319 
853	 10826.1561284282 
854	 10755.1042248377 
855	 10686.2967848118 
856	 10615.4643284603 
857	 10543.7111821235 
858	 10472.2492420849 
859	 10396.377994247 
860	 10322.8177363707 
861	 10252.946135154 
862	 10180.9176834611 
863	 10112.1227569116 
864	 10044.138997223 
865	 9972.76699598626 
866	 9901.19397942332 
867	 9829.82202237866 
868	 9759.05878479285 
869	 9689.79438303627 
870	 9622.42502238396 
871	 9556.36162801042 
872	 9490.36169264735 
873	 9423.95711468156 
874	 9355.07164890024 
875	 9283.06088560457 
876	 9211.59794171015 
877	 9139.55214898588 
878	 9068.78417799746 
879	 9003.27556178298 
880	 8934.77386629388 
881	 8866.76350792625 
882	 8802.93317758631 
883	 8735.74201872071 
884	 8672.55419142864 
885	 8612.67626285867 
886	 8545.57834237427 
887	 8476.99715193658 
888	 8409.34400722057 
889	 8343.7463244645 
890	 8278.93446435456 
891	 8213.70673198142 
892	 8147.65264715385 
893	 8081.52776071433 
894	 8015.37993224219 
895	 7948.62286399058 
896	 7880.80623232475 
897	 7814.80977276678 
898	 7748.55408629838 
899	 7681.37518924936 
900	 7616.39249082918 
901	 7553.24519451101 
902	 7490.15691556655 
903	 7424.93323533955 
904	 7360.63956900405 
905	 7298.7196470944 
906	 7238.68041115461 
907	 7176.17639747811 
908	 7112.86043385992 
909	 7048.66308314153 
910	 6982.90778337235 
911	 6918.62460694113 
912	 6855.34047332294 
913	 6792.40725122163 
914	 6730.56781337869 
915	 6668.58280572168 
916	 6606.30381372635 
917	 6544.37360002246 
918	 6483.7156685474 
919	 6422.21967820934 
920	 6358.87931571842 
921	 6297.8373235795 
922	 6234.20797996842 
923	 6169.5170441114 
924	 6109.73156294377 
925	 6050.81981729334 
926	 5992.80605909944 
927	 5935.3076811783 
928	 5874.75741140565 
929	 5811.6126051318 
930	 5746.2011280884 
931	 5679.02855215151 
932	 5613.84097770577 
933	 5550.02462721658 
934	 5486.71757937573 
935	 5425.18998225642 
936	 5365.31436262064 
937	 5307.26928172447 
938	 5251.18314431688 
939	 5193.54005474655 
940	 5133.92860322882 
941	 5073.53922290608 
942	 5016.25332358911 
943	 4958.12027253957 
944	 4899.28305067806 
945	 4842.35957555546 
946	 4785.69383279965 
947	 4729.94657883141 
948	 4675.56867040735 
949	 4621.84197683788 
950	 4567.63234029277 
951	 4512.96923381979 
952	 4458.73360084594 
953	 4406.54532572988 
954	 4355.75841608404 
955	 4304.86651630278 
956	 4250.93441373112 
957	 4198.09780708593 
958	 4145.71559737295 
959	 4091.48042410419 
960	 4036.90500924032 
961	 3984.48690160164 
962	 3934.08870773791 
963	 3881.2289260536 
964	 3828.08161725852 
965	 3775.17117654484 
966	 6116.28584822846 
967	 6186.62952370279 
968	 6259.22971887172 
969	 6339.18830405993 
970	 6427.2695113584 
971	 6519.83280507908 
972	 6618.35989261682 
973	 6720.24561846875 
974	 6832.00652588446 
975	 6939.51200303166 
976	 7049.42817898895 
977	 7157.98064375825 
978	 7259.4183674521 
979	 7359.42307271058 
980	 7453.55195424885 
981	 7540.70693771453 
982	 7625.51677458873 
983	 7712.2107580279 
984	 7793.11959028847 
985	 7871.3100708866 
986	 7945.76539426631 
987	 8015.00842091607 
988	 8083.14307331628 
989	 8148.19477741069 
990	 8210.74186966901 
991	 8268.66574864118 
992	 8330.12440698342 
993	 8389.94097902557 
994	 8453.49512853813 
995	 8516.26326448551 
996	 8577.942516644 
997	 8641.3571630565 
998	 8699.69892877008 
999	 8756.3668172424 
1000	 8815.3837270137 
1001	 8875.45214079977 
1002	 8937.26668588671 
1003	 8997.73708549991 
1004	 9058.42403357142 
1005	 9119.78533798458 
1006	 9178.88910030542 
1007	 9236.84090811323 
1008	 9295.85556374215 
1009	 9356.37174802195 
1010	 9411.9836357493 
1011	 9465.26580827842 
1012	 9519.41795320169 
1013	 9572.01767331999 
1014	 9624.53865971736 
1015	 9678.3757864858 
1016	 9729.63428507346 
1017	 9781.19241599271 
1018	 9833.89042875003 
1019	 9883.18937950978 
1020	 9934.03032823851 
1021	 9986.51628796469 
1022	 10037.3817449835 
1023	 10088.7078385334 
1024	 10140.4917045072 
1025	 10192.2838538448 
1026	 10245.1581231461 
1027	 10297.2751788284 
1028	 10347.2896477871 
1029	 10400.7240121882 
1030	 10453.3011879882 
1031	 10505.5931516611 
1032	 10562.207295737 
1033	 10616.9712020375 
1034	 10674.0278840559 
1035	 10733.8284290552 
1036	 10788.1262317089 
1037	 10843.5231200783 
1038	 10898.9288954977 
1039	 10952.4910037223 
1040	 11005.6954210459 
1041	 11060.4923055833 
1042	 11112.2389236906 
1043	 11162.4471466124 
1044	 11209.2534468124 
1045	 11258.0971043682 
1046	 11306.9005557635 
1047	 11353.1231235674 
1048	 11400.9927239028 
1049	 11444.1569571431 
1050	 11485.4000523007 
1051	 11526.7805066468 
1052	 11564.6482643536 
1053	 11603.0772457944 
1054	 11640.4455528794 
1055	 11678.5140906047 
1056	 11718.3540142522 
1057	 11756.3448721721 
1058	 11792.9811691021 
1059	 11831.0688332177 
1060	 11868.2580934519 
1061	 11906.3267339801 
1062	 11945.0666746466 
1063	 11986.6820410569 
1064	 12024.3409668109 
1065	 12061.6054285371 
1066	 12099.5905078652 
1067	 12138.205446872 
1068	 12180.1338776645 
1069	 12225.4911748165 
1070	 12274.0950875809 
1071	 12321.0279226568 
1072	 12367.7485284093 
1073	 12414.3350725718 
1074	 12461.2028921918 
1075	 12507.0362794455 
1076	 12554.3009779584 
1077	 12600.7789700239 
1078	 12651.739294938 
1079	 12703.8320650202 
1080	 12758.9282523508 
1081	 12818.1987769081 
1082	 12878.6849322963 
1083	 12942.3469979699 
1084	 13004.4694986985 
1085	 13068.9947682208 
1086	 13135.0050922699 
1087	 13199.994732016 
1088	 13270.3431845991 
1089	 13341.7119827585 
1090	 13416.9828990575 
1091	 13495.4041811026 
1092	 13576.1366602677 
1093	 13661.3922734755 
1094	 13749.8712291435 
1095	 13842.1520501295 
1096	 13936.9337429925 
1097	 14039.0141662564 
1098	 14147.1368039836 
1099	 14259.4078488049 
1100	 14380.6755137596 
1101	 14499.6332233686 
1102	 14615.1976871978 
1103	 14741.020901091 
1104	 14871.6916059089 
1105	 15005.5971148102 
1106	 15149.1217251642 
1107	 15300.2152981123 
1108	 15448.9218026557 
1109	 15597.8759933893 
1110	 15751.6674899262 
1111	 15907.3846332901 
1112	 16067.313441677 
1113	 16232.1363046192 
1114	 16398.3878237222 
1115	 16564.6059191521 
1116	 16739.219227356 
1117	 16918.4159850035 
1118	 17101.7897715713 
1119	 17292.1563798009 
1120	 17485.3918067833 
1121	 17681.9480106 
1122	 17882.0647299459 
1123	 18087.6825605879 
1124	 18295.0113398692 
1125	 18505.4817314203 
1126	 18717.6433631172 
1127	 18931.3640855511 
1128	 19148.1018367947 
1129	 19364.6495767904 
1130	 19583.4356186195 
1131	 19799.3123429815 
1132	 20017.3624851217 
1133	 20229.4460629849 
1134	 20437.5007652606 
1135	 20645.1402626086 
1136	 20849.1398225795 
1137	 21053.937117688 
1138	 21259.5905008185 
1139	 21461.7636641795 
1140	 21664.7553605663 
1141	 21861.4074596682 
1142	 22051.6434155723 
1143	 22242.5411282716 
1144	 22430.8089973778 
1145	 22616.6863256809 
1146	 22802.4460411783 
1147	 22985.1198693174 
1148	 23164.8774630349 
1149	 23341.1313913429 
1150	 23514.4088945244 
1151	 23685.1470284229 
1152	 23853.7962510451 
1153	 24019.0465660116 
1154	 24182.0383443511 
1155	 24346.99454403 
1156	 24500.3340506244 
1157	 24646.6454051443 
1158	 24789.6491331713 
1159	 24924.2995739722 
1160	 25057.6259805697 
1161	 25191.4519509016 
1162	 25315.8935377303 
1163	 25433.0854251767 
1164	 25547.0764472338 
1165	 25654.9836237374 
1166	 25758.4390191475 
1167	 25859.6815283413 
1168	 25953.2477719546 
1169	 26041.6675037242 
1170	 26124.9242594701 
1171	 26207.9894819099 
1172	 26289.0610368683 
1173	 26364.7374498506 
1174	 26438.8690525414 
1175	 26505.74625563 
1176	 26563.8213218673 
1177	 26624.5384607502 
1178	 26683.2869010942 
1179	 26738.2621415539 
1180	 26790.6521622545 
1181	 26842.9220584379 
1182	 26891.5182996951 
1183	 26940.0378619392 
1184	 26990.6747644894 
1185	 27037.3192637516 
1186	 27079.9674741363 
1187	 27121.9296151941 
1188	 27163.6352172903 
1189	 27201.492035442 
1190	 27233.9049074093 
1191	 27269.5580205073 
1192	 27303.4986797335 
1193	 27336.9297941802 
1194	 27373.9782603899 
1195	 27408.073085241 
1196	 27438.5572325669 
1197	 27467.1387755043 
1198	 27491.5257519806 
1199	 27511.2732100108 
1200	 27531.1537232478 
1201	 27548.5566820877 
1202	 27565.1020533587 
1203	 27581.5544398472 
1204	 27593.586368137 
1205	 27602.9108109961 
1206	 27610.1749318295 
1207	 27612.7872496445 
1208	 27616.7161657538 
1209	 27618.7213477602 
1210	 27621.3684740492 
1211	 27624.660783681 
1212	 27627.7672606272 
1213	 27627.3908576778 
1214	 27626.3273231032 
1215	 27624.6952368238 
1216	 27621.4704833412 
1217	 27618.8045688606 
1218	 27616.6595371705 
1219	 27612.6909851379 
1220	 27608.8459696114 
1221	 27603.672298013 
1222	 27596.5425139837 
1223	 27592.8421840345 
1224	 27589.5370375207 
1225	 27585.3720908238 
1226	 27583.1646084678 
1227	 27581.0847700939 
1228	 27577.6894332734 
1229	 27575.6598725332 
1230	 27575.0129289218 
1231	 27575.3701560321 
1232	 27575.9820200439 
1233	 27576.7448275756 
1234	 27579.3566937621 
1235	 27581.5055393232 
1236	 27582.5663233723 
1237	 27584.2076529372 
1238	 27589.266904524 
1239	 27595.1998614116 
1240	 27601.6235648709 
1241	 27612.711099229 
1242	 27623.5706606789 
1243	 27636.3952750939 
1244	 27654.5421336161 
1245	 27668.2189063623 
1246	 27682.6445580319 
1247	 27701.9454311091 
1248	 27718.5763684389 
1249	 27737.7376342381 
1250	 27759.8796595449 
1251	 27784.7359240675 
1252	 27809.9240599568 
1253	 27838.0421529333 
1254	 27865.7378947995 
1255	 27894.3881725062 
1256	 27923.0115232603 
1257	 27952.7302513116 
1258	 27981.4857875493 
1259	 28010.3990354783 
1260	 28037.6058077718 
1261	 28062.8192007533 
1262	 28089.9608283871 
1263	 28116.7639329038 
1264	 28142.0389748572 
1265	 28169.3642782861 
1266	 28191.7332002635 
1267	 28207.4468334083 
1268	 28220.0670481509 
1269	 28225.876321042 
1270	 28226.6641908583 
1271	 28225.0346340457 
1272	 28218.9246090241 
1273	 28207.4419744817 
1274	 28192.8976281538 
1275	 28169.4244675855 
1276	 28138.9633315192 
1277	 28103.5378655238 
1278	 28060.1955958203 
1279	 28016.0957678803 
1280	 27968.0612680536 
1281	 27919.4151545306 
1282	 27869.6448881974 
1283	 27816.7022503426 
1284	 27760.7522384074 
1285	 27703.2555740317 
1286	 27640.3591782445 
1287	 27580.8872995687 
1288	 27520.0861848253 
1289	 27464.0785974016 
1290	 27410.9641135802 
1291	 27360.4794660972 
1292	 27311.6320997455 
1293	 27264.683276373 
1294	 27220.8815913821 
1295	 27181.0989026306 
1296	 27149.8804964497 
1297	 27124.1647887291 
1298	 27104.8206812171 
1299	 27091.9073404999 
1300	 27080.2430473207 
1301	 27076.1234684208 
1302	 27077.7223934763 
1303	 27080.6734103089 
1304	 27093.8640417694 
1305	 27109.0244856841 
1306	 27123.1852847799 
1307	 27140.9036708273 
1308	 27157.5006798331 
1309	 27174.4927005582 
1310	 27192.8140083108 
1311	 27215.3564033261 
1312	 27240.7181176296 
1313	 27269.4590861275 
1314	 27298.0006117684 
1315	 27327.662842741 
1316	 27360.4518699638 
1317	 27393.4565836908 
1318	 27431.5212763376 
1319	 27473.9365587438 
1320	 27520.6236871592 
1321	 27566.3180615783 
1322	 27615.0315572886 
1323	 27670.6947052469 
1324	 27727.9832810104 
1325	 27793.9127865182 
1326	 27867.9546660949 
1327	 27944.7179866752 
1328	 28030.3545106558 
1329	 28120.3640950327 
1330	 28211.3113483871 
1331	 28306.359762008 
1332	 28407.0228918488 
1333	 28516.6158014109 
1334	 28629.5271236541 
1335	 28745.3609391871 
1336	 28865.9535492381 
1337	 28986.8365918797 
1338	 29109.6687921246 
1339	 29234.1326775472 
1340	 29356.6875250056 
1341	 29479.461042924 
1342	 29598.907152334 
1343	 29714.1402327655 
1344	 29824.6422103257 
1345	 29925.4750450613 
1346	 30017.6977326616 
1347	 30101.5290597851 
1348	 30178.078705905 
1349	 30244.0472672068 
1350	 30300.405523582 
1351	 30347.3225941565 
1352	 30381.1272251129 
1353	 30413.9580204519 
1354	 30437.222509707 
1355	 30462.3900726266 
1356	 30491.3548005454 
1357	 30519.6804715882 
1358	 30556.9074058786 
1359	 30608.2840496873 
1360	 30674.5777659898 
1361	 30759.517557196 
1362	 30865.3898431543 
1363	 30990.9462733157 
1364	 31135.6582338982 
1365	 31294.4267472673 
1366	 31472.2820227461 
1367	 31658.3049757688 
1368	 31849.100152359 
1369	 32037.7751528028 
1370	 32223.8546064434 
1371	 32389.6321472966 
1372	 32525.306212594 
1373	 32638.8213987472 
1374	 32705.4070462874 
1375	 32739.4704777687 
1376	 32742.8088221342 
1377	 32717.2378194814 
1378	 32670.6043223611 
1379	 32607.2466269449 
1380	 32531.5225343549 
1381	 32455.8109835637 
1382	 32389.2054828454 
1383	 32330.6744844306 
1384	 32293.7150127645 
1385	 32266.2468010824 
1386	 32253.3183584082 
1387	 32256.9626399297 
1388	 32266.1042993688 
1389	 32288.6501313456 
1390	 32322.3972682121 
1391	 32363.8357960821 
1392	 32419.9004597805 
1393	 32489.5315564957 
1394	 32572.334438795 
1395	 32669.1545005638 
1396	 32776.734353596 
1397	 32891.625264485 
1398	 33009.5497788696 
1399	 33130.1296756924 
1400	 33249.8864525191 
1401	 33374.783402889 
1402	 33494.1342497068 
1403	 33601.4561291629 
1404	 33703.7137790082 
1405	 33787.3080844439 
1406	 33863.8432611926 
1407	 33936.0113597872 
1408	 33999.8304363621 
1409	 34063.5610023495 
1410	 34122.9121857356 
1411	 34177.3753099655 
1412	 34229.2798610616 
1413	 34275.4282727944 
1414	 34318.1733182481 
1415	 34358.4209988228 
1416	 34390.2153390308 
1417	 34413.5582824511 
1418	 34430.7342847202 
1419	 34442.3620483574 
1420	 34446.5761319127 
1421	 34448.4601120643 
1422	 34445.2877434807 
1423	 34431.4889731945 
1424	 34416.9979447172 
1425	 34395.6217910834 
1426	 34368.0472820573 
1427	 34343.4724162291 
1428	 34311.0512428072 
1429	 34272.6354461042 
1430	 34233.8468632154 
1431	 34187.747813271 
1432	 34139.9293484525 
1433	 34095.0558920178 
1434	 34048.2081717959 
1435	 34002.6050240321 
1436	 33959.212054879 
1437	 33913.9690675254 
1438	 33868.7226293007 
1439	 33825.5000364015 
1440	 33781.7665709083 
1441	 33740.5535664996 
1442	 33702.3944150799 
1443	 33663.7418472411 
1444	 33628.6546027301 
1445	 33593.4813073809 
1446	 33559.2206488715 
1447	 33525.1831066491 
1448	 33492.0677277106 
1449	 33455.5457139806 
1450	 33418.9560306304 
1451	 33382.0493019637 
1452	 33342.9429295387 
1453	 33305.4542784048 
1454	 33265.3760933499 
1455	 33223.5265872725 
1456	 33180.0437958372 
1457	 33132.1778461951 
1458	 33085.5784180929 
1459	 33033.3583328695 
1460	 32975.5217553227 
1461	 32915.6972121718 
1462	 32853.5330589349 
1463	 32792.4855747083 
1464	 32726.3429930879 
1465	 32661.0343259878 
1466	 32598.8412498372 
1467	 32535.9080286368 
1468	 32478.0531031868 
1469	 32423.2678831242 
1470	 32368.9385562434 
1471	 32313.6215726595 
1472	 32259.352039107 
1473	 32207.4257707707 
1474	 32155.8639188229 
1475	 32109.3878705674 
1476	 32062.9505175098 
1477	 32016.5128269518 
1478	 31975.9611938326 
1479	 31932.8196866589 
1480	 31890.9241879999 
1481	 31850.1383999118 
1482	 31807.6278221659 
1483	 31766.86667627 
1484	 31724.6365999837 
1485	 31686.631816586 
1486	 31649.2528255657 
1487	 31608.4858734071 
1488	 31568.9050802016 
1489	 31526.8758275468 
1490	 31484.308260411 
1491	 31443.0573943556 
1492	 31402.0561998217 
1493	 31365.7306201862 
1494	 31328.7782162261 
1495	 31289.085976586 
1496	 31252.6934276525 
1497	 31214.3137104056 
1498	 31175.8971606445 
1499	 31139.8456713955 
1500	 31099.4848634432 
1501	 31059.3538447722 
1502	 31021.2468879275 
1503	 30980.8396204037 
1504	 30940.4690984328 
1505	 30901.3637834424 
1506	 30860.8914417173 
1507	 30819.0585894677 
1508	 30778.1040271127 
1509	 30735.3796475681 
1510	 30693.0660960092 
1511	 30655.3673048036 
1512	 30616.3957037929 
1513	 30578.0300056955 
1514	 30541.0161635196 
1515	 30499.8078490274 
1516	 30460.4293410558 
1517	 30424.258309268 
1518	 30385.8267550895 
1519	 30344.553522191 
1520	 30304.3640816574 
1521	 30264.0282434559 
1522	 30220.8656146214 
1523	 30181.9567047193 
1524	 30143.2541683355 
1525	 30097.6793745433 
1526	 30052.5858527435 
1527	 30007.9449080387 
1528	 29961.4011775354 
1529	 29917.2761870871 
1530	 29872.1546612962 
1531	 29823.1489465119 
1532	 29772.8735203504 
1533	 29724.4381100518 
1534	 29681.4250208993 
1535	 29638.0641904397 
1536	 29590.9143786516 
1537	 29542.5638776996 
1538	 29489.3756925034 
1539	 29435.6359200305 
1540	 29386.8077955556 
1541	 29340.7286986683 
1542	 29294.3917692211 
1543	 29247.7738220582 
1544	 29202.4692288465 
1545	 29151.4393196863 
1546	 29096.2132945143 
1547	 29043.0307584934 
1548	 28986.5441652931 
1549	 28929.9010145727 
1550	 28877.8630475438 
1551	 28826.5353089715 
1552	 28772.6413852873 
1553	 28717.4956227091 
1554	 28661.7653676221 
1555	 28604.139177619 
1556	 28549.1105514036 
1557	 28497.0640962047 
1558	 28441.4424998298 
1559	 28382.0083399603 
1560	 28323.1520018233 
1561	 28260.5983342686 
1562	 28200.4362190895 
1563	 28145.7017719022 
1564	 28086.9110501553 
1565	 28029.0513746572 
1566	 27969.3751713062 
1567	 27908.0437338218 
1568	 27847.4109968996 
1569	 27782.4512537681 
1570	 27718.667152365 
1571	 27656.0118604468 
1572	 27593.1806641659 
1573	 27529.7130430154 
1574	 27464.6163018829 
1575	 27399.3933706191 
1576	 27330.3232072293 
1577	 27261.2648039983 
1578	 27196.7738415687 
1579	 27130.5508287252 
1580	 27063.7991403474 
1581	 26999.3563999298 
1582	 26932.7545724065 
1583	 26864.8630850736 
1584	 26797.8855615147 
1585	 26729.2201608683 
1586	 26659.4634116296 
1587	 26588.032038048 
1588	 26515.1376581055 
1589	 26445.9475483707 
1590	 26371.5648516089 
1591	 26296.2677352475 
1592	 26230.0025742303 
1593	 26156.9207856528 
1594	 26084.4216977877 
1595	 26017.4033152283 
1596	 25941.2080708209 
1597	 25865.7346225279 
1598	 25796.4456109892 
1599	 25726.5488486614 
1600	 25656.690554611 
1601	 25585.5373255887 
1602	 25511.4866017496 
1603	 25437.2874159589 
1604	 25363.1138596924 
1605	 25288.8051641995 
1606	 25214.7357342815 
1607	 25136.9924531536 
1608	 25058.4923146496 
1609	 24983.0327029955 
1610	 24906.7039348169 
1611	 24829.373951485 
1612	 24752.9185068833 
1613	 24671.872348274 
1614	 24586.670353523 
1615	 24504.4580397458 
1616	 24419.7415205179 
1617	 24333.4741045524 
1618	 24251.1168951289 
1619	 24166.5371150652 
1620	 24077.4240063851 
1621	 23987.4403351264 
1622	 23896.829744977 
1623	 23805.6952439039 
1624	 23715.6799746934 
1625	 23626.3032295478 
1626	 23536.2330720419 
1627	 23444.3408494605 
1628	 23352.707817635 
1629	 23259.0845115319 
1630	 23163.2212716536 
1631	 23071.2595293461 
1632	 22980.0026870943 
1633	 22890.3033345791 
1634	 22803.9114382314 
1635	 22718.052253944 
1636	 22633.7675995526 
1637	 22550.925947902 
1638	 22470.9895764182 
1639	 22389.8520343175 
1640	 22309.0413556434 
1641	 22228.3093645882 
1642	 22148.776789849 
1643	 22065.1573193613 
1644	 21980.8672697921 
1645	 21893.8928514752 
1646	 21803.9320355004 
1647	 21712.5984161115 
1648	 21619.3513247188 
1649	 21523.9467277455 
1650	 21426.1222778604 
1651	 21325.673838704 
1652	 21223.6625922226 
1653	 21119.3179365016 
1654	 21015.7409619287 
1655	 20903.194243074 
1656	 20787.1428706788 
1657	 20662.4281977698 
1658	 20530.697365964 
1659	 20390.1864441557 
1660	 20242.0011058003 
1661	 20086.9499403719 
1662	 19923.0820362869 
1663	 19752.8268293181 
1664	 19573.8432652296 
1665	 19394.4973233487 
1666	 19204.0771989823 
1667	 19024.8628425017 
1668	 18845.9627993572 
1669	 18675.7993271914 
1670	 18510.4111718161 
1671	 18354.7539867656 
1672	 18204.24765512 
1673	 18067.1845553714 
1674	 17940.226554484 
1675	 17824.146598049 
1676	 17719.5602397181 
1677	 17623.6197596177 
1678	 17538.7843489022 
1679	 17459.1699110167 
1680	 17388.4796287341 
1681	 17322.2193359815 
1682	 17262.8639220531 
1683	 17205.8517242624 
1684	 17156.2877769268 
1685	 17112.646246868 
1686	 17072.647041626 
1687	 17040.1324719218 
1688	 17006.4600609967 
1689	 16973.4033769914 
1690	 16941.4953303901 
1691	 16911.3438066506 
1692	 16880.429642676 
1693	 16852.342798584 
1694	 16820.1311713206 
1695	 16782.9755280801 
1696	 16749.118038223 
1697	 16713.9060836753 
1698	 16680.5278513832 
1699	 16650.3473750129 
1700	 16619.9968160395 
1701	 16589.448571809 
1702	 16559.8874043145 
1703	 16532.8315036075 
1704	 16503.6263083791 
1705	 16471.860316419 
1706	 16443.8811112592 
1707	 16418.0966121794 
1708	 16390.1463513629 
1709	 16364.339649221 
1710	 16336.1804088451 
1711	 16304.0289771833 
1712	 16274.5715056462 
1713	 16247.164829432 
1714	 16217.2297333723 
1715	 16187.3929569385 
1716	 16154.8296287859 
1717	 16118.2545322332 
1718	 16086.4000491992 
1719	 16054.1194954321 
1720	 16025.4448893626 
1721	 16001.7410461888 
1722	 15973.8498800526 
1723	 15945.1345739778 
1724	 15918.1069635684 
1725	 15890.1317778144 
1726	 15864.4087104069 
1727	 15840.5366276611 
1728	 15816.7348122678 
1729	 15792.8266434789 
1730	 15766.021576651 
1731	 15739.3743320066 
1732	 15713.5384006969 
1733	 15690.5378494461 
1734	 15675.2799426636 
1735	 15655.9367653918 
1736	 15634.552890248 
1737	 15614.7279546937 
1738	 15592.2063789656 
1739	 15573.2972910307 
1740	 15557.9022459617 
1741	 15541.447511078 
1742	 15525.8083198006 
1743	 15511.5004170452 
1744	 15497.5774673507 
1745	 15484.3107091959 
1746	 15473.9771032309 
1747	 15460.2600686195 
1748	 15443.9410009855 
1749	 15430.2867269938 
1750	 15415.9389376467 
1751	 15402.9323509488 
1752	 15391.7500993028 
1753	 15381.2399433568 
1754	 15372.6004815003 
1755	 15362.7570539824 
1756	 9431.3254934036 
1757	 9567.47924795114 
1758	 9713.35670952384 
1759	 9844.41432213048 
1760	 9964.77962432047 
1761	 10079.0843426457 
1762	 10195.5793142964 
1763	 10301.4521365906 
1764	 10421.2815428279 
1765	 10547.8185908546 
1766	 10672.2259050759 
1767	 10803.2732249835 
1768	 10932.6475760925 
1769	 11063.2899529376 
1770	 11188.390261683 
1771	 11312.8074349507 
1772	 11443.7054737294 
1773	 11570.6448447608 
1774	 11692.2146277368 
1775	 11819.075738912 
1776	 11947.4211847164 
1777	 12072.546095666 
1778	 12197.9752718535 
1779	 12330.6610308806 
1780	 12441.6333801608 
1781	 12563.3481214434 
1782	 12693.2567425091 
1783	 12812.9514160584 
1784	 12939.5106646209 
1785	 13078.8197536668 
1786	 13208.1917585293 
1787	 13323.8638791696 
1788	 13451.2341075664 
1789	 13575.1582603317 
1790	 13708.7283174495 
1791	 13838.9412954173 
1792	 13960.6546685045 
1793	 14093.3978786522 
1794	 14219.3373944699 
1795	 14337.5792809458 
1796	 14463.6320394087 
1797	 14598.5617467035 
1798	 14717.9704779583 
1799	 14831.7571662471 
1800	 14938.2991281593 
1801	 15041.8372514527 
1802	 15133.0691686239 
1803	 15228.2468616645 
1804	 15336.4891041064 
1805	 15425.4542444395 
1806	 15506.2947654216 
1807	 15578.9429444187 
1808	 15630.6705677858 
1809	 15669.5368661951 
1810	 15718.7528083915 
1811	 15765.3470870169 
1812	 15810.4777276013 
1813	 15866.510336905 
1814	 15909.299531437 
1815	 15933.2055180269 
1816	 15969.144171281 
1817	 16012.5354386378 
1818	 16045.2367805066 
1819	 16083.2129697166 
1820	 16126.1728404482 
1821	 16157.179001282 
1822	 16180.5806792122 
1823	 16204.9317772034 
1824	 16221.3177983394 
1825	 16242.1376510307 
1826	 16267.1475557679 
1827	 16287.4901404261 
1828	 16303.4304254455 
1829	 16322.4881388255 
1830	 16339.7367656976 
1831	 16352.4366701738 
1832	 16370.4312491503 
1833	 16387.2003244671 
1834	 16412.2490602076 
1835	 16429.7455143165 
1836	 16471.2824091469 
1837	 16530.0546715231 
1838	 16592.580694787 
1839	 16675.3141344562 
1840	 16761.0756235609 
1841	 16836.2537295108 
1842	 16911.0588280553 
1843	 16979.5671987707 
1844	 17040.0979838954 
1845	 17103.0765809844 
1846	 17169.9801145462 
1847	 17225.7072341859 
1848	 17271.844850676 
1849	 17318.9795140754 
1850	 17368.3580001153 
1851	 17417.2946701865 
1852	 17471.1767496186 
1853	 17539.2297240944 
1854	 17595.5469244941 
1855	 17662.3587294777 
1856	 17699.6291125444 
1857	 17731.8027000937 
1858	 17739.3667787722 
1859	 17718.9811782422 
1860	 17679.8139113032 
1861	 17639.6314406912 
1862	 17592.9429241619 
1863	 17552.5583831691 
1864	 17503.9454780229 
1865	 17474.5941651492 
1866	 17438.1055079377 
1867	 17437.7670100612 
1868	 17448.5392097325 
1869	 17498.4147738952 
1870	 17579.3385145113 
1871	 17685.4378248785 
1872	 17810.7161348642 
1873	 17945.8072064859 
1874	 18089.5578013439 
1875	 18229.5243233995 
1876	 18348.8725262396 
1877	 18464.1721753384 
1878	 18556.0918987406 
1879	 18626.5387062992 
1880	 18676.5685831262 
1881	 18718.993585233 
1882	 18753.0691456597 
1883	 18767.5300267251 
1884	 18762.4783679296 
1885	 18738.061019596 
1886	 18702.7540378616 
1887	 18663.457681735 
1888	 18612.9872414409 
1889	 18559.6413412089 
1890	 18506.6766011887 
1891	 18442.7452568969 
1892	 18367.7925947603 
1893	 18292.5363434286 
1894	 18209.3577570438 
1895	 18127.5800056713 
1896	 18053.3162604968 
1897	 17982.5974986913 
1898	 17909.6680960542 
1899	 17858.7698426303 
1900	 17816.4758893678 
1901	 17781.6745823808 
1902	 17779.8097407334 
1903	 17778.0699205122 
1904	 17796.9610132491 
1905	 17832.8031840204 
1906	 17853.6724449565 
1907	 17872.2952929849 
1908	 17882.1459182494 
1909	 17872.8620382262 
1910	 17874.7067123399 
1911	 17874.202022935 
1912	 17881.3762623575 
1913	 17892.4226903887 
1914	 17907.4980082655 
1915	 17930.825962417 
1916	 17953.4834143072 
1917	 17972.7942709717 
1918	 17996.2656630761 
1919	 18022.9677907698 
1920	 18047.5417791869 
1921	 18079.5040418786 
1922	 18119.6204880722 
1923	 18158.6893328913 
1924	 18204.2054659834 
1925	 18245.5797681276 
1926	 18290.9715014472 
1927	 18329.9847268484 
1928	 18367.6282013818 
1929	 18385.0900779012 
1930	 18395.9242960913 
1931	 18392.6297985614 
1932	 18393.9690286785 
1933	 18382.0867567223 
1934	 18380.4077921445 
1935	 18379.0979207253 
1936	 18384.6962625786 
1937	 18398.7698268783 
1938	 18409.3457117334 
1939	 18425.4386790741 
1940	 18441.0854435676 
1941	 18445.4080434487 
1942	 18441.7118916376 
1943	 18438.1952543659 
1944	 18427.5315976641 
1945	 18419.3072221437 
1946	 18412.5802257621 
1947	 18400.3739126289 
1948	 18388.8357541436 
1949	 18369.4740155191 
1950	 18337.270465492 
1951	 18312.9035640661 
1952	 18289.1937521836 
1953	 18263.610406847 
1954	 18236.2486152166 
1955	 18212.1849338934 
1956	 18184.8086956627 
1957	 18154.2228338992 
1958	 18119.915927591 
1959	 18084.863772562 
1960	 18048.3887449377 
1961	 18007.8470221209 
1962	 17964.4640112684 
1963	 17923.1450728512 
1964	 17875.9179750921 
1965	 17822.9280064471 
1966	 17763.611619666 
1967	 17708.5781402215 
1968	 17656.5822472352 
1969	 17593.7084130177 
1970	 17525.794437892 
1971	 17458.0114615061 
1972	 17380.5924504042 
1973	 17308.7006398128 
1974	 17246.0776293451 
1975	 17172.9008837194 
1976	 17094.9115269567 
1977	 17014.124214965 
1978	 16926.8278813742 
1979	 16835.2252325909 
1980	 16750.5487662427 
1981	 16668.5165502919 
1982	 16581.9460589389 
1983	 16497.8727586768 
1984	 16408.4914590395 
1985	 16309.1532222458 
1986	 16218.8448933452 
1987	 16134.1649370461 
1988	 16044.9556711709 
1989	 15961.1897985484 
1990	 15870.1341251206 
1991	 15770.2153285773 
1992	 15672.0007308392 
1993	 15574.7550459807 
1994	 15477.0678106976 
1995	 15385.7419480833 
1996	 15298.7890690165 
1997	 15213.3979930539 
1998	 15139.2477321244 
1999	 15049.4857916285 
2000	 14956.8878426924 
2001	 14858.820480883 
2002	 14738.6613752895 
2003	 14639.653958683 
2004	 14550.6710674753 
2005	 14460.9981128532 
2006	 14375.4733890961 
2007	 14288.8511877417 
2008	 14184.587788091 
2009	 14081.4020426561 
2010	 13982.5352809621 
2011	 13882.6239576882 
2012	 13785.8719427736 
2013	 13692.6502344989 
2014	 13599.2250795402 
2015	 13511.3963866179 
2016	 13417.525274325 
2017	 13319.1844770658 
2018	 13225.4029039793 
2019	 13128.5852000487 
2020	 13034.061395064 
2021	 12949.0665156597 
2022	 12869.6816499813 
2023	 12787.2472305578 
2024	 12704.6909525978 
2025	 12620.8502129656 
2026	 12529.8557912852 
2027	 12445.7607771178 
2028	 12366.3442978301 
2029	 12284.6408621374 
2030	 12203.1095367147 
2031	 12125.1187315343 
2032	 12049.4309352336 
2033	 11971.8899524282 
2034	 11888.2429547636 
2035	 11826.6360799561 
2036	 11768.7774889797 
2037	 11706.2352511653 
2038	 11660.3562485573 
2039	 11606.0503124641 
2040	 11546.8591332455 
2041	 11497.2628547048 
2042	 11441.3313388404 
2043	 11382.7490889302 
2044	 11325.4092620874 
2045	 11264.9868701656 
2046	 11205.3836552209 
2047	 11148.6555310535 
2048	 11091.645011741 
2049	 11030.1489909608 
2050	 10975.9424554991 
2051	 10931.8996901882 
2052	 10875.4757125291 
2053	 10827.0817589531 
2054	 10780.8076584021 
2055	 10722.8417391753 
2056	 10668.8440561224 
2057	 10621.2231436604 
2058	 10577.0103481251 
2059	 10538.1158796753 
2060	 10514.8412594856 
2061	 10480.1214839958 
2062	 10443.9561998349 
2063	 10401.855105805 
2064	 10358.0160404149 
2065	 10301.945594619 
2066	 10236.8387017945 
2067	 10184.8282489227 
2068	 10127.540376774 
2069	 10064.9724343616 
2070	 10011.123984447 
2071	 9955.38399453078 
2072	 9896.86980883908 
2073	 9848.38303995676 
2074	 9813.74067932476 
2075	 9779.44908577513 
2076	 9737.35226042519 
2077	 9695.29077871468 
2078	 9651.96850839436 
2079	 9602.70480045144 
2080	 9550.84861674571 
2081	 9498.39713471829 
2082	 9446.23161561778 
2083	 9391.57740100446 
2084	 9338.49033513306 
2085	 9292.2358458952 
2086	 9239.4465933647 
2087	 9190.10569243808 
2088	 9143.12985537514 
2089	 9096.37907614205 
2090	 9059.74760296974 
2091	 9014.53898002979 
2092	 8961.1808307449 
2093	 8912.59781861376 
2094	 8860.95221205524 
2095	 8809.13856949269 
2096	 8764.37358403827 
2097	 8709.92046558757 
2098	 8646.48923377713 
2099	 8587.12713232484 
2100	 8534.06995227058 
2101	 8470.95393057125 
2102	 8419.61016553975 
2103	 8365.6391565006 
2104	 8299.48387671326 
2105	 8239.95102907872 
2106	 8174.55907563273 
2107	 8107.10840862728 
2108	 8052.1056620218 
2109	 7992.10724921185 
2110	 7930.13782455152 
2111	 7878.05867099207 
2112	 7806.03773926034 
2113	 7721.75321972601 
2114	 7647.81478194622 
2115	 7565.34772833149 
2116	 7492.1613325893 
2117	 7431.37660721196 
2118	 7376.84549340886 
2119	 7325.68614558893 
2120	 7282.46565346068 
2121	 7244.21732422395 
2122	 7196.19013048115 
2123	 7146.05295068747 
2124	 7102.05380863692 
2125	 7057.47015058072 
2126	 7012.41692147338 
2127	 6966.30674483246 
2128	 6907.63002398393 
2129	 6853.47900631769 
2130	 6806.33734178572 
2131	 6768.71088430977 
2132	 6748.3312363757 
2133	 6726.3849665224 
2134	 6699.13122204892 
2135	 6670.94311511544 
2136	 6636.26971735244 
2137	 6605.3314255167 
2138	 6579.61034975776 
2139	 6548.60943476773 
2140	 6514.57367044653 
2141	 6476.70457020029 
2142	 6448.95991368299 
2143	 6424.53462080467 
2144	 6412.76921588705 
2145	 6405.18077966592 
2146	 6394.82292076249 
2147	 6386.62655977263 
2148	 6380.96767568195 
2149	 6386.56398671421 
2150	 6395.30095080164 
2151	 6414.4376216869 
2152	 6442.11424796901 
2153	 6480.697693945 
2154	 6534.17763831642 
2155	 6583.39888515195 
2156	 6637.68000116647 
2157	 6680.48291679683 
2158	 6722.4158437014 
2159	 6763.43156075372 
2160	 6802.2981112196 
2161	 6836.4239690324 
2162	 6873.23369573017 
2163	 6912.92639467888 
2164	 6934.13509739106 
2165	 6960.52095847475 
2166	 6987.51733827915 
2167	 7005.23497320979 
2168	 7023.70390471246 
2169	 7041.68130338945 
2170	 7051.76342868784 
2171	 7063.2934242932 
2172	 7090.14450466387 
2173	 7117.88554181693 
2174	 7147.03079346221 
2175	 7182.57538465774 
2176	 7200.52734234822 
2177	 7228.0358299893 
2178	 7272.52735563454 
2179	 7309.51872857477 
2180	 7351.35330838722 
2181	 7374.9738426387 
2182	 7384.63172461157 
2183	 7400.71064486554 
2184	 7414.50980755446 
2185	 7426.81588257271 
2186	 7453.89311797013 
2187	 7451.51677147044 
2188	 7433.66992073974 
2189	 7402.86984200292 
2190	 7369.51826990115 
2191	 7341.72779767515 
2192	 7326.20097084121 
2193	 7314.69565878484 
2194	 7297.54628965971 
2195	 7272.38187279061 
2196	 7239.80226165977 
2197	 7212.19820491677 
2198	 7186.61414430368 
2199	 7154.4713160264 
2200	 7124.80115199213 
2201	 7095.76279437225 
2202	 7068.23198857515 
2203	 7055.75732320957 
2204	 7064.23482915236 
2205	 7071.74842966397 
2206	 7079.76368910214 
2207	 7089.14209048007 
2208	 7087.02444014194 
2209	 7081.02853598442 
2210	 7070.63407753444 
2211	 7059.16691166077 
2212	 7039.09407168358 
2213	 7008.33954812074 
2214	 6984.14440866013 
2215	 6953.66093944072 
2216	 6923.96450456161 
2217	 6898.70147744747 
2218	 6867.00861999937 
2219	 6828.31013361437 
2220	 6800.22242043275 
2221	 6771.79943754427 
2222	 6747.91358285569 
2223	 6727.59706420132 
2224	 6694.61373720812 
2225	 6652.30223689355 
2226	 6603.7370382069 
2227	 6544.87319159479 
2228	 6494.78973039141 
2229	 6454.90248703647 
2230	 6419.41366330243 
2231	 6385.78810718668 
2232	 6348.22966368873 
2233	 6308.92343925524 
2234	 6257.78780945745 
2235	 6210.02021096569 
2236	 6165.39859507874 
2237	 6117.8876493115 
2238	 6072.21793692664 
2239	 6019.34168040636 
2240	 5976.18617556266 
2241	 5933.2962351957 
2242	 5887.93101774489 
2243	 5844.17759157503 
2244	 5798.96720106645 
2245	 5757.1991789338 
2246	 5718.38143364375 
2247	 5681.22788173608 
2248	 5649.27463163314 
2249	 5622.50949817135 
2250	 5595.66920263473 
2251	 5571.4632207397 
2252	 5559.37166965965 
2253	 5531.24438577947 
2254	 5492.36524931042 
2255	 5457.56817194544 
2256	 5416.56947539928 
2257	 5383.10672721605 
2258	 5349.34857035852 
2259	 5325.12372512957 
2260	 5298.90902024716 
2261	 5270.44200968819 
2262	 5242.00183949332 
2263	 5221.69097329081 
2264	 5196.66629637276 
2265	 5172.35895002057 
2266	 5161.16957840717 
2267	 5128.56463823257 
2268	 5096.68334268057 
2269	 5061.66826953966 
2270	 5012.42403794513 
2271	 4972.69773617395 
2272	 4933.02675809755 
2273	 4894.1354766573 
2274	 4856.54401697356 
2275	 4821.59806665125 
2276	 4786.93474565778 
2277	 4755.95205369468 
2278	 4729.42642890886 
2279	 4695.88288992125 
2280	 4659.86796765835 
2281	 4620.36076929817 
2282	 4581.50040269682 
2283	 4542.92897167914 
2284	 4502.56758009293 
2285	 4470.32693170223 
2286	 4439.30770843524 
2287	 4409.88539751316 
2288	 4378.68682155175 
2289	 4352.11838691811 
2290	 4319.61389856297 
2291	 4278.70454384132 
2292	 4247.15815921611 
2293	 4222.03304611497 
2294	 4192.97790570869 
2295	 4164.04715031482 
2296	 4138.56540907525 
2297	 4113.33148339534 
2298	 4084.72702609644 
2299	 4057.09898359606 
2300	 4029.62257380931 
2301	 3997.30660175236 
2302	 3969.94049990969 
2303	 3950.0982556065 
2304	 3926.10670511065 
2305	 3901.11299654582 
2306	 3872.68993279047 
2307	 3839.41317541231 
2308	 3811.34444913544 
2309	 3780.84861851742 
2310	 3758.72579071968 
2311	 3744.35880311969 
2312	 3713.55167817244 
2313	 3679.0603236764 
2314	 3647.19717039166 
2315	 3613.23942163396 
2316	 3598.16912752133 
2317	 3583.2927735719 
2318	 3571.47633203658 
2319	 3558.3239959142 
2320	 3526.80827546268 
2321	 3497.39235394863 
2322	 3463.94031725517 
2323	 3427.55388589565 
2324	 3390.68154218583 
2325	 3353.72167419115 
2326	 3318.97342322063 
2327	 3289.10024336215 
2328	 3258.61980258354 
2329	 3216.74863107201 
2330	 3182.3304105534 
2331	 3139.21832532127 
2332	 3095.53259152269 
2333	 3072.28825884093 
2334	 3043.34870393961 
2335	 3011.69656170728 
2336	 2983.98801510662 
2337	 2943.68488729531 
2338	 2894.63931372574 
2339	 2866.36157959162 
2340	 2842.615824875 
2341	 2824.57046580823 
2342	 2814.05290061508 
2343	 2783.22321946389 
2344	 2749.76423872258 
2345	 2716.20122246607 
2346	 2689.91619066296 
2347	 2674.49161588202 
2348	 2663.35308726333 
2349	 2654.57851028717 
2350	 2637.96654098729 
2351	 2612.02771295121 
2352	 2582.40817234027 
2353	 2552.77765453966 
2354	 2519.68783152546 
2355	 2490.96867185204 
2356	 2464.68907847745 
2357	 2439.97275628139 
2358	 2420.36991816337 
2359	 2406.91396619525 
2360	 2394.30742969477 
2361	 2374.6849486881 
2362	 2355.59096886665 
2363	 2340.42156692409 
2364	 2321.02202362055 
2365	 2295.94941072067 
2366	 2272.0895348355 
2367	 2247.77833027488 
2368	 2223.1136062054 
2369	 2190.79424802592 
2370	 2160.08677756199 
2371	 2134.53300861985 
2372	 2105.15856583037 
2373	 2092.21049668185 
2374	 2084.42650156212 
2375	 2060.61142893423 
2376	 2031.8194583527 
2377	 2010.48041495126 
2378	 1992.5088403465 
2379	 1985.2372346457 
2380	 1986.27727489556 
2381	 1966.38147758417 
2382	 1938.43984672325 
2383	 1903.88551997976 
2384	 1857.55504116613 
2385	 1825.36080447867 
2386	 1797.96639182281 
2387	 1776.47467089859 
2388	 1764.66723205603 
2389	 1751.33496891631 
2390	 1732.89398155552 
2391	 1720.1649762831 
2392	 1720.73579793168 
2393	 1710.68044330868 
2394	 1702.64643050044 
2395	 1687.60765620181 
2396	 1650.70516386338 
2397	 1627.96614823676 
2398	 1617.27200937259 
2399	 1599.42371354037 
2400	 1586.50217713371 
2401	 1580.55516878279 
2402	 1562.14076959581 
2403	 1547.08735490709 
2404	 1537.73987766781 
2405	 1513.31923432091 
2406	 1494.89112902193 
2407	 1490.50990021311 
2408	 1477.46782946418 
2409	 1462.42134383354 
2410	 1450.68693093091 
2411	 1430.97142266652 
2412	 1418.87013471072 
2413	 1409.03419606498 
2414	 1393.48965027103 
2415	 1376.6946674558 
2416	 1357.28774276208 
2417	 1343.07986747915 
2418	 1328.13040803304 
2419	 1315.75936347045 
2420	 1298.30254221073 
2421	 1284.1121267957 
2422	 1280.70400938268 
2423	 1265.04308730087 
2424	 1253.77946124266 
2425	 1238.18618337755 
2426	 1212.34366941568 
2427	 1198.51535542015 
2428	 1186.6424000183 
2429	 1174.10212171466 
2430	 1154.44748390836 
2431	 1129.38219986195 
2432	 1111.41447189364 
2433	 1091.81119674891 
2434	 1074.06777699115 
2435	 1065.54861462676 
2436	 1054.71038321267 
2437	 1048.63207705361 
2438	 1056.06568394078 
2439	 1057.18299327536 
2440	 1047.74463786377 
2441	 1039.59864544265 
2442	 1030.50658215826 
2443	 1018.4454275809 
2444	 1011.59939318377 
2445	 995.388521818253 
2446	 977.043935603062 
2447	 966.704217037005 
2448	 947.470845362184 
2449	 938.639699830728 
2450	 936.210989823896 
2451	 927.602576361648 
2452	 930.511223583098 
2453	 933.755980520308 
2454	 920.88636546854 
2455	 910.948443988279 
2456	 900.360842991621 
2457	 883.647695344128 
2458	 873.387080319747 
2459	 861.858219171632 
2460	 852.248810134085 
2461	 842.964227151611 
2462	 829.860707639878 
2463	 814.164298423154 
2464	 798.469875191773 
2465	 778.532803974367 
2466	 762.290737491693 
2467	 744.715605223767 
2468	 733.943842554647 
2469	 727.423386714083 
2470	 730.842299499398 
2471	 732.854513662759 
2472	 732.684661089143 
2473	 749.8871777367 
2474	 753.681744605032 
2475	 753.38512995315 
2476	 747.247584096449 
2477	 728.345007929115 
2478	 727.634151083894 
2479	 727.747907564993 
2480	 727.147974393387 
2481	 726.815595303574 
2482	 709.895510565251 
2483	 681.372931666463 
2484	 664.354365085384 
2485	 651.994509123863 
2486	 637.900319178675 
2487	 638.241563486768 
2488	 634.905790100935 
2489	 620.256489051754 
2490	 610.828827021279 
2491	 597.297686305202 
2492	 575.286808637404 
2493	 564.976114907027 
2494	 551.161103860842 
2495	 529.246516508006 
2496	 516.08398426923 
2497	 493.05869904915 
2498	 471.053179462582 
2499	 466.941883000774 
2500	 459.316027285864 
