Wavelength	1mm_GrayPLA00000.asd
350	-9.11062369139206E-02 
351	 0.407325597617567 
352	 1.19904476040366 
353	 0.180541429071846 
354	 1.32331061255389 
355	 1.71015808801382 
356	-0.591321057546042 
357	-1.32840546494367 
358	-1.35171102416933 
359	-0.683970080937659 
360	 1.1962750966123 
361	 1.14308003231653 
362	 0.39912773990182 
363	 0.670916148853305 
364	 0.802180987011192 
365	 0.367726809234758 
366	-0.394927979771216 
367	-0.480817778568015 
368	 1.06655261212127 
369	 2.11824176444922 
370	 0.40882008565114 
371	 0.515671754049017 
372	 0.605882469728847 
373	-0.284708847925901 
374	-0.639115673790184 
375	 0.885550735112672 
376	 2.43408908930834 
377	 0.832764483354703 
378	 0.152360338570543 
379	 0.44729894114159 
380	 1.13448050634802 
381	 1.78448092920755 
382	 2.50342035240656 
383	 2.68467643237335 
384	 1.13874464225885 
385	-4.27816173468666E-02 
386	-0.940090813459024 
387	-1.70524803964165 
388	 0.224136611175978 
389	 1.82610397891355 
390	 1.45590332498129 
391	-0.518224704727252 
392	 0.36160447555264 
393	 2.27586155877151 
394	 1.21846118291666 
395	 0.644331351739481 
396	 1.44345750323091 
397	 3.18672262075455 
398	 3.03735669870474 
399	 1.78110422716524 
400	 0.630789314680204 
401	 1.19378332721646 
402	 1.21899105012154 
403	 0.956835984339987 
404	 1.13274970661262 
405	 2.01233926364958 
406	 1.02513287292829 
407	-1.17084884446217 
408	 1.4494133057245 
409	 2.81087449297185 
410	 2.34493427603465 
411	 1.80350692390596 
412	 2.552595620122 
413	 3.09385226951685 
414	 2.51957831781432 
415	 2.83821599692106 
416	 2.25529483754848 
417	 1.40031787766943 
418	 3.02424797755694 
419	 3.27382459273016 
420	 2.8061585734261 
421	 3.30916423015998 
422	 4.95473939958299 
423	 5.22869131647574 
424	 3.84649437562542 
425	 5.27033395419585 
426	 5.35286528992138 
427	 4.0781121404287 
428	 3.54078248895767 
429	 4.23031784229618 
430	 4.77490785873724 
431	 4.22395353549999 
432	 4.79360916744285 
433	 4.42325406765045 
434	 3.23600247255469 
435	 4.30101480093935 
436	 5.60916715593324 
437	 5.84971754729624 
438	 4.38690589261861 
439	 5.15198107364929 
440	 5.67252588930567 
441	 4.39084050120302 
442	 4.42683855348444 
443	 4.42819786602242 
444	 4.35807003893657 
445	 5.30280393259723 
446	 5.92265511953889 
447	 6.00999656140753 
448	 5.79361513318402 
449	 5.88229582622802 
450	 6.38802529262587 
451	 6.99949143814743 
452	 6.50249371432449 
453	 6.23947916803905 
454	 6.27658851482169 
455	 5.89401505234611 
456	 6.30848794045372 
457	 6.833939960838 
458	 6.62951099668012 
459	 6.29452757389853 
460	 6.81957730005172 
461	 7.85723004938943 
462	 6.20692959566932 
463	 6.68606695471594 
464	 8.44199132153052 
465	 7.7557022276627 
466	 7.01769660428986 
467	 7.19236157964766 
468	 8.26841231438365 
469	 7.14976415061519 
470	 7.51248898697192 
471	 9.6423684048411 
472	 8.17526518455301 
473	 7.47221985941848 
474	 8.220229387178 
475	 9.48101424346297 
476	 10.3375011186355 
477	 10.419472038823 
478	 9.80482644623893 
479	 9.54833319096041 
480	 9.25522536050297 
481	 9.12917958110361 
482	 10.4106227287623 
483	 10.2320479357917 
484	 10.0411225485846 
485	 12.569707494575 
486	 11.2518467824521 
487	 9.27730893398471 
488	 10.0067193880567 
489	 12.2915555976023 
490	 13.0094192538704 
491	 11.7774485545998 
492	 11.6770901829882 
493	 12.5534934833005 
494	 13.1224145977923 
495	 11.8448514501605 
496	 12.5257144277947 
497	 12.9950020792083 
498	 11.7848946503342 
499	 12.8196254590957 
500	 15.1261014108557 
501	 17.0573341701201 
502	 15.821107401653 
503	 15.0561744716863 
504	 15.149623676943 
505	 15.2240176441325 
506	 15.6393717843306 
507	 16.1668625710609 
508	 16.7066133906114 
509	 18.0145081043847 
510	 18.7114555355078 
511	 18.5174378604238 
512	 18.5505631612996 
513	 19.2562674849873 
514	 20.0110520110633 
515	 19.7759566816907 
516	 19.7299261519421 
517	 20.8105968410259 
518	 22.9758271981776 
519	 23.0021432735192 
520	 22.2173474523701 
521	 21.6755693855027 
522	 22.0754539747183 
523	 22.5716904185845 
524	 23.4058947125736 
525	 25.1103472542514 
526	 25.0412238060928 
527	 24.4528786882351 
528	 24.8013195599392 
529	 25.2547370792421 
530	 25.809840980056 
531	 26.4525027790478 
532	 27.0894444135545 
533	 28.1047178144362 
534	 28.8735260672882 
535	 28.3095610549851 
536	 28.0510134170659 
537	 28.3151490642451 
538	 28.9780294834883 
539	 29.802243738679 
540	 31.4380237779578 
541	 33.3599505917353 
542	 32.5412216130882 
543	 31.8607800691542 
544	 31.7888322836869 
545	 31.551912937249 
546	 33.5851516285825 
547	 35.1929728012711 
548	 33.8649300832375 
549	 35.2014803840604 
550	 36.2361220740468 
551	 35.4361545085669 
552	 35.1350687437107 
553	 36.2692815517271 
554	 37.7989470028954 
555	 37.0195780370815 
556	 38.3906119454705 
557	 39.3709787890361 
558	 36.7953814093615 
559	 37.3104753700056 
560	 38.3128273436772 
561	 37.9626284855204 
562	 38.3847410745949 
563	 39.1739410939231 
564	 39.8784827345945 
565	 39.8881599557929 
566	 39.571249559732 
567	 39.5063392654433 
568	 40.1144171012701 
569	 39.4977077915059 
570	 39.1095046188154 
571	 39.6291152400993 
572	 37.7839054794027 
573	 37.998020282919 
574	 40.2100275534137 
575	 38.8488014510778 
576	 38.0226864170363 
577	 38.231300104215 
578	 38.5991819346414 
579	 38.5610057055596 
580	 37.8155233229601 
581	 36.7185224865685 
582	 37.9474661643912 
583	 38.1700047067616 
584	 36.5924061468884 
585	 36.415355275311 
586	 36.5003159729361 
587	 35.9902056187955 
588	 34.1473852593952 
589	 34.1961931826815 
590	 35.1396382155424 
591	 35.3730894514426 
592	 35.157735052058 
593	 34.7499018236323 
594	 34.576629520343 
595	 35.6851261953108 
596	 35.6463331848434 
597	 34.572037592005 
598	 34.2958467661381 
599	 33.9731409186174 
600	 34.5487379497034 
601	 36.6913350431346 
602	 36.7236962111585 
603	 36.4105284901801 
604	 36.9448531855202 
605	 36.9826197665273 
606	 37.4184937941961 
607	 38.0615639249139 
608	 37.7277742790387 
609	 37.487510928798 
610	 37.6042146405838 
611	 38.0207063753096 
612	 38.2052972032575 
613	 38.3383302787879 
614	 38.7426040202648 
615	 40.0243792314082 
616	 40.6473093941684 
617	 40.9212967034857 
618	 43.7248375524789 
619	 43.9711130760818 
620	 42.3831374153817 
621	 42.0808643808509 
622	 41.9203434172816 
623	 42.580851503256 
624	 44.3499404622787 
625	 45.1702962264188 
626	 45.7661911583874 
627	 46.1047912257073 
628	 44.4228310154081 
629	 44.2883775638078 
630	 46.0033118904725 
631	 47.9731215717521 
632	 47.6183858907476 
633	 46.3337524282457 
634	 46.1290858887214 
635	 46.7209347306081 
636	 47.1750338222046 
637	 47.4266613022853 
638	 49.6378716929929 
639	 49.9332413939547 
640	 49.0082876165577 
641	 50.8953665911181 
642	 49.8827633378707 
643	 47.7051562593468 
644	 47.7514425987718 
645	 49.1152233104961 
646	 50.7276492376319 
647	 51.7833954381438 
648	 52.1643888268101 
649	 51.9553922999228 
650	 51.7483403254442 
651	 52.7475240474901 
652	 53.1002676728962 
653	 53.0306705408892 
654	 53.3542680988506 
655	 52.8640371284996 
656	 53.1547143023197 
657	 54.8655363951017 
658	 54.3567219318561 
659	 54.7443990451362 
660	 56.2891189018714 
661	 55.4272659680907 
662	 55.7038776736317 
663	 56.7110066737516 
664	 56.5153597486653 
665	 56.5941315650348 
666	 57.3267632122238 
667	 58.4870010803898 
668	 58.185964118825 
669	 58.24915543856 
670	 58.9554307026382 
671	 57.5627375220214 
672	 58.4538215903861 
673	 60.730315746297 
674	 60.7301661919448 
675	 60.8515466401481 
676	 61.7418458247237 
677	 63.2884177954533 
678	 63.4357356948473 
679	 63.590261684996 
680	 64.4797209228154 
681	 65.2149401232443 
682	 66.089300822021 
683	 66.662408256726 
684	 66.0468878729316 
685	 66.5487229886984 
686	 67.725056635149 
687	 68.4188822958069 
688	 68.029532535467 
689	 67.8408152991879 
690	 68.6257302468771 
691	 69.8783999851185 
692	 70.4467590675619 
693	 70.275334490852 
694	 70.2570758194976 
695	 70.5557728648825 
696	 70.8897588856373 
697	 70.9498314494342 
698	 71.6613997177583 
699	 72.4083351179281 
700	 72.9951406900568 
701	 74.8792283550702 
702	 76.6960077904647 
703	 77.6163027107726 
704	 77.1926224612953 
705	 77.0987136206373 
706	 76.9476655883085 
707	 76.0028684453209 
708	 77.5604032859589 
709	 78.758735113537 
710	 77.7267247583266 
711	 77.6306394604542 
712	 78.5672536181524 
713	 79.5157651916624 
714	 77.9107253411513 
715	 77.3084232323906 
716	 78.0508679389451 
717	 79.1135190569982 
718	 78.8725318705555 
719	 78.7773906879547 
720	 79.6895864056896 
721	 78.9148105204626 
722	 78.3280473965119 
723	 78.5672002006268 
724	 78.7875133846961 
725	 78.5095113428365 
726	 78.446748935476 
727	 79.5674206447536 
728	 78.606227618587 
729	 77.955569293655 
730	 79.3677872872813 
731	 79.2786795182887 
732	 79.2540415290778 
733	 79.8494906879719 
734	 80.328688000481 
735	 79.8205647233047 
736	 78.7219491437972 
737	 78.0524115378813 
738	 77.9196193745932 
739	 78.4218793159406 
740	 79.4359379428162 
741	 80.3044197269179 
742	 80.9557190462163 
743	 81.0791415975389 
744	 79.8730850243979 
745	 79.1853921645902 
746	 79.3775723417985 
747	 79.9452461323278 
748	 78.3169515112199 
749	 76.7617351882081 
750	 77.0572482452007 
751	 76.3601971326976 
752	 76.5294092069436 
753	 77.7673345437269 
754	 78.0592624011116 
755	 78.5172564584965 
756	 78.6909789646942 
757	 77.7039317674213 
758	 76.7778154064888 
759	 76.3400061675084 
760	 76.36907938596 
761	 75.8050957649903 
762	 75.8803697399824 
763	 76.2661509363494 
764	 74.6298590805531 
765	 73.832414111338 
766	 74.0009057641295 
767	 74.1244939178984 
768	 72.66741620137 
769	 72.0028955618288 
770	 73.4091603111055 
771	 73.8261584715937 
772	 71.9701420914044 
773	 69.4870610362026 
774	 71.3309752690362 
775	 71.434336785112 
776	 69.9674106966821 
777	 69.1872045383314 
778	 70.5891030033506 
779	 70.8030761983024 
780	 68.4312223536298 
781	 68.1772768902652 
782	 68.3110091996806 
783	 68.1825702174437 
784	 67.8636339797034 
785	 67.2237361968146 
786	 67.0053025366151 
787	 67.8387348884945 
788	 68.5170556410288 
789	 67.1252532470368 
790	 64.1289167003332 
791	 65.3626235666842 
792	 64.7021265662041 
793	 62.2870810335818 
794	 62.0254898453048 
795	 63.0599025623951 
796	 63.9836506589439 
797	 63.5863024687128 
798	 62.439697680347 
799	 60.8977194361314 
800	 59.5637504011189 
801	 59.6168770499578 
802	 59.4454993648054 
803	 58.8243105823495 
804	 58.1854638325794 
805	 58.1297927410354 
806	 57.8423170372201 
807	 56.9286703886128 
808	 57.2207308964991 
809	 56.6963200902491 
810	 55.6917581510296 
811	 57.2185941726074 
812	 56.9017987252393 
813	 55.3141945150774 
814	 54.4407697094976 
815	 53.4698397835503 
816	 53.2005571592922 
817	 53.9456998791122 
818	 54.8693554863371 
819	 54.991514531967 
820	 53.9045716338318 
821	 51.7565425073043 
822	 51.5327980293113 
823	 51.6544773225643 
824	 50.430531636247 
825	 50.5949266728505 
826	 51.2545653404896 
827	 51.3594459645229 
828	 49.5835948935259 
829	 48.6690787352153 
830	 48.8466495085863 
831	 49.2168272222625 
832	 48.7065211908618 
833	 49.1682510412389 
834	 50.6276795705163 
835	 46.7261486035936 
836	 44.7284807755223 
837	 45.6692260425337 
838	 45.7033195915285 
839	 46.7210327662366 
840	 47.5479794357934 
841	 46.7221515707054 
842	 44.4843866337599 
843	 43.5920480927935 
844	 44.5691709319848 
845	 44.3728556476582 
846	 45.092232291068 
847	 46.2441727771345 
848	 46.3283407755952 
849	 44.4021224944119 
850	 42.8467400757699 
851	 43.2079218749467 
852	 44.0603433056204 
853	 44.502853445977 
854	 44.229789228476 
855	 43.4540906841881 
856	 42.6987140401342 
857	 42.0505631225351 
858	 41.5115447497069 
859	 41.1267567889075 
860	 41.783892462978 
861	 43.2932781233454 
862	 44.1430744861564 
863	 42.8838891075463 
864	 41.3549763495009 
865	 41.9319524329368 
866	 41.2128513876242 
867	 40.3346673542898 
868	 40.3177304863211 
869	 41.4186333513566 
870	 41.563461663425 
871	 40.6722430083082 
872	 39.7324146651288 
873	 38.386510345267 
874	 38.3975605560054 
875	 40.2181549228134 
876	 39.7333389644965 
877	 39.4022362319076 
878	 39.9382194141531 
879	 40.6701114063629 
880	 40.3609359723926 
881	 39.9622702859505 
882	 40.3675564842438 
883	 39.9852420202778 
884	 39.1758700661684 
885	 38.5324867027121 
886	 38.9008673365959 
887	 38.4462285027465 
888	 38.2370916453689 
889	 39.5717565745487 
890	 39.7500287695373 
891	 39.395287119668 
892	 39.1090727905885 
893	 39.2011254019782 
894	 38.2471141568992 
895	 37.399458888361 
896	 38.492222355039 
897	 40.2495474010282 
898	 40.0983122635834 
899	 37.6676253611933 
900	 37.0887976570619 
901	 37.2639203878564 
902	 37.4083908346207 
903	 36.9107056831971 
904	 37.7519032418106 
905	 38.2672408508273 
906	 37.4007852211567 
907	 36.6416364451333 
908	 35.440758868775 
909	 34.772478499638 
910	 36.2068721233813 
911	 36.9602165621681 
912	 37.0341077354822 
913	 36.7470461099157 
914	 35.8468264718214 
915	 34.8927623471482 
916	 34.506356284587 
917	 35.253548309157 
918	 36.1530613497913 
919	 35.9910412611556 
920	 34.7688636068682 
921	 36.3155587797356 
922	 36.0879140089814 
923	 34.490702699505 
924	 35.3499827387273 
925	 34.9939983686445 
926	 34.5466695812575 
927	 35.02457064409 
928	 34.2306010258283 
929	 34.3202471296038 
930	 34.6784452113247 
931	 32.9086896972151 
932	 34.3286122382417 
933	 35.2783635922051 
934	 32.83127541526 
935	 31.1574764404756 
936	 30.9578971167963 
937	 31.6546577541815 
938	 31.7529179708215 
939	 32.7172055543808 
940	 32.8409162915619 
941	 31.3415624013611 
942	 31.5102603449885 
943	 31.3810087915463 
944	 31.1954406867897 
945	 32.3107269712335 
946	 31.388750058719 
947	 30.8777618769116 
948	 32.1783024900251 
949	 31.8656111858431 
950	 30.8252114377481 
951	 30.1340124499202 
952	 30.7188646617706 
953	 29.5786593362635 
954	 28.4650840513483 
955	 28.7659544377947 
956	 30.0653334773394 
957	 30.3283613767132 
958	 29.5046917442017 
959	 28.4952019368787 
960	 27.4367997200072 
961	 27.08603967499 
962	 27.5465858613111 
963	 27.8830184052816 
964	 27.5544927821849 
965	 26.9076702594669 
966	 50.3183689047761 
967	 53.364630886511 
968	 53.9895585687234 
969	 53.5461083072454 
970	 51.6560954397092 
971	 52.609631673967 
972	 53.0363115856231 
973	 53.4223691432614 
974	 56.0992300259611 
975	 57.8064930344171 
976	 57.4456573301372 
977	 58.6235039790292 
978	 63.8412726877413 
979	 65.2724752752746 
980	 65.3856292074227 
981	 67.4384845427608 
982	 65.9776883107992 
983	 65.379854125714 
984	 68.7368102838069 
985	 69.6866644474558 
986	 70.2288749839572 
987	 71.4715506501568 
988	 71.4473010002334 
989	 68.4367631902275 
990	 69.277318402805 
991	 72.9529784695285 
992	 74.8585429537451 
993	 78.0473187080965 
994	 79.1329288373226 
995	 76.9756117384055 
996	 74.3095723674797 
997	 73.864244259156 
998	 73.0343634360879 
999	 74.4435585764812 
1000	 75.5078188966382 
1001	 74.5627576106192 
1002	 75.0300107261616 
1003	 76.0472188167552 
1004	 77.668180782576 
1005	 80.48354036109 
1006	 87.6376682738183 
1007	 89.4707047714703 
1008	 89.2441485162284 
1009	 88.6998372729456 
1010	 86.9536711830775 
1011	 83.507067147343 
1012	 86.2103757139429 
1013	 90.9597923698364 
1014	 91.6811591814433 
1015	 91.7944877051876 
1016	 89.6867473626118 
1017	 86.0729504305547 
1018	 85.7529970236131 
1019	 87.9595846009981 
1020	 91.2438281231931 
1021	 93.3629968887704 
1022	 93.8287066694699 
1023	 94.6664743294744 
1024	 94.9142326112797 
1025	 93.9318992586624 
1026	 94.6451159213912 
1027	 95.3944321323999 
1028	 96.6434900705166 
1029	 101.029377981368 
1030	 101.904293509671 
1031	 103.326894502661 
1032	 107.385907970879 
1033	 107.117155160345 
1034	 107.254375473134 
1035	 110.1756951545 
1036	 109.247780945278 
1037	 106.412533732234 
1038	 106.514629137779 
1039	 108.218971086637 
1040	 109.926014993203 
1041	 113.357392189999 
1042	 116.588803354788 
1043	 120.616308812781 
1044	 122.413552716866 
1045	 125.171901292719 
1046	 127.168836615299 
1047	 124.926102922545 
1048	 123.009097169498 
1049	 121.103814255872 
1050	 119.098850036529 
1051	 121.433879223292 
1052	 122.832393781732 
1053	 122.516017122064 
1054	 123.792430555409 
1055	 125.04152638874 
1056	 126.067527737423 
1057	 126.714739496104 
1058	 128.30584107853 
1059	 128.840097877555 
1060	 126.994666281635 
1061	 127.54507168511 
1062	 129.841716499855 
1063	 130.927311237467 
1064	 130.127540752271 
1065	 129.888466654476 
1066	 131.029547694724 
1067	 130.703199075813 
1068	 132.581390343135 
1069	 134.7628529766 
1070	 137.113900765433 
1071	 140.088535084214 
1072	 139.944602775487 
1073	 140.917110393822 
1074	 141.382828934449 
1075	 138.523153720295 
1076	 138.977701649173 
1077	 142.960805725544 
1078	 144.347566103578 
1079	 144.762115636818 
1080	 145.313840590734 
1081	 144.785122411721 
1082	 144.872179317848 
1083	 145.365237812066 
1084	 145.915096852274 
1085	 147.251763697454 
1086	 151.89595738858 
1087	 154.514626460473 
1088	 157.217806349333 
1089	 159.235072420256 
1090	 158.219603619608 
1091	 158.670577976301 
1092	 159.492315607242 
1093	 159.608429309028 
1094	 158.809420318896 
1095	 159.641323135247 
1096	 160.228739248867 
1097	 162.146296755413 
1098	 167.17106864869 
1099	 169.247342302019 
1100	 168.803840607157 
1101	 171.192511325591 
1102	 173.69358819849 
1103	 176.579520665512 
1104	 181.502465587012 
1105	 187.130972026594 
1106	 191.126457202662 
1107	 192.237356606893 
1108	 193.148535288741 
1109	 193.48334669901 
1110	 193.856078614116 
1111	 192.573698995564 
1112	 194.473883978883 
1113	 197.456977138022 
1114	 201.064111225982 
1115	 207.664699802868 
1116	 211.317822195654 
1117	 214.146633597542 
1118	 216.781693585119 
1119	 217.189704699564 
1120	 219.672991928458 
1121	 224.089142279332 
1122	 226.805005256716 
1123	 229.269830127723 
1124	 231.931274160798 
1125	 234.516387313221 
1126	 234.967906518905 
1127	 237.557467177088 
1128	 241.996208741642 
1129	 243.661642517004 
1130	 244.479911116122 
1131	 245.545139333968 
1132	 243.874321412293 
1133	 246.585798613847 
1134	 252.45220879414 
1135	 255.960156249156 
1136	 261.011149224305 
1137	 264.383830721867 
1138	 266.512201620775 
1139	 267.47292500654 
1140	 264.870478300113 
1141	 267.230697660011 
1142	 272.865404923602 
1143	 275.087015002487 
1144	 278.557334988419 
1145	 282.122906154212 
1146	 282.144171814719 
1147	 283.143431663186 
1148	 285.046529764344 
1149	 289.521356802379 
1150	 293.123465998656 
1151	 296.607895677262 
1152	 298.621237460364 
1153	 301.883574171905 
1154	 302.504100896601 
1155	 299.189261499859 
1156	 298.832819989243 
1157	 299.170016587138 
1158	 299.213995759112 
1159	 300.275377296706 
1160	 300.168553033537 
1161	 299.408035100519 
1162	 298.561120200084 
1163	 295.433729650443 
1164	 295.675574989947 
1165	 298.367355838577 
1166	 299.686395810446 
1167	 304.027340987578 
1168	 305.598309550786 
1169	 302.168317508384 
1170	 300.828490299095 
1171	 299.579903681803 
1172	 296.396098114801 
1173	 297.512558730264 
1174	 301.080877325692 
1175	 304.588328878743 
1176	 311.692852711615 
1177	 314.779671237719 
1178	 316.85463572682 
1179	 318.015591098368 
1180	 314.496146271203 
1181	 316.45680743181 
1182	 321.158899263416 
1183	 325.232969528237 
1184	 332.929139476152 
1185	 337.953100379321 
1186	 341.316711554072 
1187	 344.071429315208 
1188	 344.702761217011 
1189	 347.521597599622 
1190	 351.123690967278 
1191	 354.161254180331 
1192	 358.789601817619 
1193	 361.67141332591 
1194	 361.546247574092 
1195	 365.251272494646 
1196	 366.964215794159 
1197	 368.610909630756 
1198	 369.82022456873 
1199	 370.165110913277 
1200	 370.503906673308 
1201	 369.942180751949 
1202	 371.629224943581 
1203	 374.10336625655 
1204	 376.312510128754 
1205	 381.110435762621 
1206	 383.731494456744 
1207	 385.287668019991 
1208	 386.233452701193 
1209	 384.5184899489 
1210	 384.751897393468 
1211	 385.153288318927 
1212	 386.700436332079 
1213	 387.466725779418 
1214	 390.381375189116 
1215	 391.124762336961 
1216	 392.110624007047 
1217	 395.058433806164 
1218	 394.184376576028 
1219	 396.150905293209 
1220	 399.452186882195 
1221	 400.769858892572 
1222	 402.769342029328 
1223	 403.934374394995 
1224	 402.912758240748 
1225	 402.966858214263 
1226	 402.251725115806 
1227	 403.346680963545 
1228	 406.058687318319 
1229	 406.598988178988 
1230	 408.265118118823 
1231	 409.431415093855 
1232	 407.670827937692 
1233	 408.704104426079 
1234	 411.812557085134 
1235	 412.58535410547 
1236	 413.556069005965 
1237	 413.666594898278 
1238	 412.586061396952 
1239	 414.456064441579 
1240	 412.91249192281 
1241	 414.579583819472 
1242	 418.616453324493 
1243	 415.68808689391 
1244	 415.295026041037 
1245	 416.271193552007 
1246	 413.229539020827 
1247	 413.917443756764 
1248	 416.334565228659 
1249	 417.916784111888 
1250	 419.487815056629 
1251	 420.450521053528 
1252	 423.279423508985 
1253	 427.415693799425 
1254	 429.939814496564 
1255	 434.198952587491 
1256	 435.743115076301 
1257	 434.015169128487 
1258	 434.989897546253 
1259	 435.408179049015 
1260	 436.504412677295 
1261	 440.236003788697 
1262	 440.955272521408 
1263	 440.368134506368 
1264	 440.949393099946 
1265	 441.621498498762 
1266	 443.641358820967 
1267	 442.933475431212 
1268	 443.090962102696 
1269	 444.767956487828 
1270	 443.826793891828 
1271	 445.879454955538 
1272	 449.185070221289 
1273	 447.960738047104 
1274	 445.810848984027 
1275	 443.268510789406 
1276	 442.727454571365 
1277	 443.982232527486 
1278	 444.970928353979 
1279	 444.5228925334 
1280	 442.555091759241 
1281	 440.418116370828 
1282	 435.554715998954 
1283	 434.787541125482 
1284	 437.448559207615 
1285	 439.182692354565 
1286	 443.777453178384 
1287	 445.029742397544 
1288	 445.24830917625 
1289	 441.241843605855 
1290	 438.039072823772 
1291	 436.79237592552 
1292	 434.690564320481 
1293	 434.570658661056 
1294	 436.088523132946 
1295	 435.807271413017 
1296	 439.570073190555 
1297	 445.833080469239 
1298	 447.469510787543 
1299	 447.396012881698 
1300	 448.567964036878 
1301	 446.120935041163 
1302	 443.281485187022 
1303	 444.507090017923 
1304	 442.343776670496 
1305	 440.697416097491 
1306	 444.089216612464 
1307	 446.163689401234 
1308	 450.107515270367 
1309	 455.230362944153 
1310	 455.259781188495 
1311	 453.459094185738 
1312	 452.382879399535 
1313	 447.820664427547 
1314	 446.651263209988 
1315	 449.374762837525 
1316	 449.26242064099 
1317	 446.943247693857 
1318	 448.496158182355 
1319	 450.27738612505 
1320	 453.997578285152 
1321	 460.628570644441 
1322	 463.737089331227 
1323	 463.748732300842 
1324	 463.215811770142 
1325	 463.329749982079 
1326	 464.049890336219 
1327	 466.041408083962 
1328	 467.634915265145 
1329	 466.585512480384 
1330	 467.834757521039 
1331	 469.603054081062 
1332	 470.972181919578 
1333	 473.153800311604 
1334	 474.5517630418 
1335	 475.841893563006 
1336	 474.979541078785 
1337	 474.021079244532 
1338	 474.065491621079 
1339	 472.040341595176 
1340	 471.011998435976 
1341	 470.535211764552 
1342	 469.548256691747 
1343	 469.909896370838 
1344	 469.449281202987 
1345	 469.097159546698 
1346	 468.594721885716 
1347	 467.152018240361 
1348	 463.943598057149 
1349	 463.441387798224 
1350	 464.150138821626 
1351	 462.8287420188 
1352	 463.317375831577 
1353	 461.865036133262 
1354	 457.489033871391 
1355	 453.551596321038 
1356	 453.051484750415 
1357	 451.037375998297 
1358	 451.962734280567 
1359	 455.526338450985 
1360	 457.05370236031 
1361	 459.690800584663 
1362	 460.667578069574 
1363	 459.866817198416 
1364	 458.436621774673 
1365	 455.220443558024 
1366	 453.455012769252 
1367	 452.582818199096 
1368	 453.96446805039 
1369	 458.136853736432 
1370	 462.912751979553 
1371	 468.912814216842 
1372	 474.493063755555 
1373	 476.661957357967 
1374	 476.237955874031 
1375	 476.236707870927 
1376	 474.417591418367 
1377	 473.832177845539 
1378	 476.767245655531 
1379	 476.258532109355 
1380	 474.377873307938 
1381	 472.240975955758 
1382	 470.086784305281 
1383	 470.137498190988 
1384	 469.977822578617 
1385	 471.095963070877 
1386	 472.410515205892 
1387	 472.050204181175 
1388	 472.591286813314 
1389	 474.013954017364 
1390	 474.804734643191 
1391	 473.900583667828 
1392	 475.970090408104 
1393	 479.360098430738 
1394	 481.774551471907 
1395	 485.53380736459 
1396	 489.501671172858 
1397	 489.455859913947 
1398	 490.057777121375 
1399	 491.514909341527 
1400	 493.134354102902 
1401	 496.458669982743 
1402	 499.512401975302 
1403	 504.448650427822 
1404	 509.104471780078 
1405	 512.100753752973 
1406	 517.41157038086 
1407	 521.602537030224 
1408	 523.130909573367 
1409	 524.58847585117 
1410	 525.386987112397 
1411	 525.539987901585 
1412	 525.737161528391 
1413	 526.485991677154 
1414	 526.260883372816 
1415	 525.672402542906 
1416	 526.840574000753 
1417	 529.645823200456 
1418	 534.827291203924 
1419	 540.910333178409 
1420	 545.558951170136 
1421	 547.939705809264 
1422	 549.040756741538 
1423	 550.900931212924 
1424	 553.052730656645 
1425	 553.919551739687 
1426	 555.789435654272 
1427	 556.556593565487 
1428	 554.519812780656 
1429	 554.244369720394 
1430	 554.480962968672 
1431	 554.287297146726 
1432	 554.917712971016 
1433	 555.148127725199 
1434	 554.645276210014 
1435	 552.609463030014 
1436	 550.324366237578 
1437	 550.780814987903 
1438	 550.8303801514 
1439	 549.530370317432 
1440	 549.917831736152 
1441	 549.752611803077 
1442	 550.513139931743 
1443	 552.030196273239 
1444	 552.704842110382 
1445	 552.164795277027 
1446	 548.004700878518 
1447	 546.223431734736 
1448	 545.241070672738 
1449	 544.998060284351 
1450	 546.751834078384 
1451	 547.435961971293 
1452	 547.635638197929 
1453	 547.633425683352 
1454	 550.902069933177 
1455	 554.164850093234 
1456	 554.864524202231 
1457	 556.209944055561 
1458	 555.099236970331 
1459	 554.028825378266 
1460	 557.296043226194 
1461	 558.639349838099 
1462	 557.269305190148 
1463	 556.407410787962 
1464	 553.877517605788 
1465	 554.458458642803 
1466	 558.984168965161 
1467	 559.489738163065 
1468	 558.123559493628 
1469	 556.347514472257 
1470	 552.563174343627 
1471	 549.813669363127 
1472	 549.268780111389 
1473	 550.016724301922 
1474	 551.633762707899 
1475	 552.457710761535 
1476	 552.519561952019 
1477	 553.068544577133 
1478	 552.138892095332 
1479	 550.592042930757 
1480	 549.604219978178 
1481	 548.912639333436 
1482	 550.161563625073 
1483	 553.621521405596 
1484	 560.024589981207 
1485	 565.891279515894 
1486	 566.943670604539 
1487	 566.725295270034 
1488	 565.56417008479 
1489	 565.211679596208 
1490	 567.597042675122 
1491	 567.831481545554 
1492	 567.474284564228 
1493	 567.142457636919 
1494	 565.963110767229 
1495	 565.770131527557 
1496	 566.163337691857 
1497	 567.920629900964 
1498	 568.024786660108 
1499	 567.618126410641 
1500	 567.763928563133 
1501	 567.015082496083 
1502	 568.652117563004 
1503	 568.744228163561 
1504	 567.579558854755 
1505	 566.127353715523 
1506	 560.874639273964 
1507	 560.674570536831 
1508	 564.445233838572 
1509	 564.146737393738 
1510	 565.197784707615 
1511	 563.640584320681 
1512	 561.059198983022 
1513	 562.746072362993 
1514	 563.88630223103 
1515	 567.276713921988 
1516	 569.49056564481 
1517	 569.604310568331 
1518	 569.366735525779 
1519	 567.661771036792 
1520	 566.391521960576 
1521	 563.725901024301 
1522	 564.004321614921 
1523	 563.590679564018 
1524	 559.972349481492 
1525	 559.112577126557 
1526	 555.875134996019 
1527	 554.338001130887 
1528	 556.171372191905 
1529	 554.640766874295 
1530	 554.88650657698 
1531	 557.850644716769 
1532	 558.174500015846 
1533	 558.208478459138 
1534	 559.812503970473 
1535	 558.20455670115 
1536	 555.645072842998 
1537	 556.447302465182 
1538	 556.717029712344 
1539	 555.258437651103 
1540	 556.642888760953 
1541	 558.67660223082 
1542	 558.111847447859 
1543	 557.324954222541 
1544	 555.668273601706 
1545	 553.462577737261 
1546	 551.074438940555 
1547	 549.725616027256 
1548	 548.651638409587 
1549	 546.146995510788 
1550	 546.175987020671 
1551	 547.746009657784 
1552	 547.421725890729 
1553	 544.883083850694 
1554	 541.611791098798 
1555	 537.284422536316 
1556	 531.256665817738 
1557	 528.912167317726 
1558	 532.351571312867 
1559	 535.571693690836 
1560	 538.685360134864 
1561	 543.151800863508 
1562	 541.535663981469 
1563	 538.559465734141 
1564	 541.116704641133 
1565	 540.854747868485 
1566	 538.520950685587 
1567	 537.505651876917 
1568	 533.538211599716 
1569	 529.543314727661 
1570	 529.438514668334 
1571	 531.17674960946 
1572	 531.6038032916 
1573	 530.438656967649 
1574	 528.061615478865 
1575	 521.969622828884 
1576	 516.21732743842 
1577	 514.986410747832 
1578	 514.514046325034 
1579	 515.369685844389 
1580	 517.158868423124 
1581	 515.396947898567 
1582	 512.852302215209 
1583	 513.423567900914 
1584	 512.622064754067 
1585	 512.94760042113 
1586	 513.224048162263 
1587	 508.661547720825 
1588	 505.182946658366 
1589	 501.701072500546 
1590	 499.247618581506 
1591	 498.805556525169 
1592	 497.882478639754 
1593	 496.492801033215 
1594	 494.390002855812 
1595	 494.438945326529 
1596	 498.450726166037 
1597	 502.757684449718 
1598	 502.925867939058 
1599	 501.346301857065 
1600	 495.18066242694 
1601	 486.343882763528 
1602	 483.86813785162 
1603	 480.860971278981 
1604	 474.527167279468 
1605	 469.101572089012 
1606	 462.680479992877 
1607	 458.236949667254 
1608	 457.155682232279 
1609	 458.574294265221 
1610	 459.349553909593 
1611	 455.96865609427 
1612	 452.038224847445 
1613	 448.796696808752 
1614	 446.333052672988 
1615	 447.014350648052 
1616	 449.491601228198 
1617	 450.961104133232 
1618	 449.631473869942 
1619	 446.771705538681 
1620	 444.472737861645 
1621	 440.692666223271 
1622	 437.54653312527 
1623	 436.776929211086 
1624	 437.137075706374 
1625	 436.39950413504 
1626	 434.915087728833 
1627	 434.209628366787 
1628	 431.707098485101 
1629	 429.340029588652 
1630	 428.843529026402 
1631	 430.343816882053 
1632	 428.180639219665 
1633	 424.325534025387 
1634	 420.435546682484 
1635	 417.788951210453 
1636	 419.056186739495 
1637	 417.99869540513 
1638	 415.5065636273 
1639	 413.557861397241 
1640	 411.000008210832 
1641	 407.360665450539 
1642	 403.94426563363 
1643	 400.176684826996 
1644	 394.064299289129 
1645	 389.884583963411 
1646	 386.833246048968 
1647	 383.520040149833 
1648	 380.88767862391 
1649	 378.139523496579 
1650	 376.377355233954 
1651	 372.481061940799 
1652	 368.88440017028 
1653	 362.287399893212 
1654	 353.343333781966 
1655	 343.231507387526 
1656	 329.8439105133 
1657	 318.391404207434 
1658	 306.995438386669 
1659	 294.247850147457 
1660	 281.602784900851 
1661	 268.930620426056 
1662	 254.566261045411 
1663	 240.883261111478 
1664	 228.179669118916 
1665	 215.368113176509 
1666	 200.871996910639 
1667	 189.726892205831 
1668	 180.333646421699 
1669	 171.735392041865 
1670	 164.971261659221 
1671	 158.373673672365 
1672	 152.853554983583 
1673	 147.045938113676 
1674	 142.404372669607 
1675	 136.052482409199 
1676	 127.686913147117 
1677	 123.422152079101 
1678	 119.381938564905 
1679	 117.950260514728 
1680	 121.058100607084 
1681	 119.864939199256 
1682	 116.880305769535 
1683	 118.387489914285 
1684	 119.375597605679 
1685	 121.140334709758 
1686	 126.382459362662 
1687	 131.899225522322 
1688	 136.700412735122 
1689	 143.735069251928 
1690	 150.121252032693 
1691	 155.665586417511 
1692	 160.028624380408 
1693	 165.747091537397 
1694	 168.576907803621 
1695	 167.870638711246 
1696	 167.33253794009 
1697	 165.270044638585 
1698	 163.142953922193 
1699	 161.217539372193 
1700	 157.975188497226 
1701	 153.93327246365 
1702	 149.119329295238 
1703	 142.774291777504 
1704	 136.772921082923 
1705	 129.625172028311 
1706	 123.995654587432 
1707	 119.719524433123 
1708	 114.169567052812 
1709	 108.500719628229 
1710	 103.364858370099 
1711	 97.3478539187176 
1712	 92.1364943211123 
1713	 88.5379994832683 
1714	 83.6454111181158 
1715	 76.8069922612721 
1716	 73.674368202507 
1717	 71.9448860259429 
1718	 69.924019043469 
1719	 70.2391227160781 
1720	 69.6091736037004 
1721	 67.4187464871969 
1722	 68.2460653776594 
1723	 70.679077888133 
1724	 73.2946829273118 
1725	 77.0928910354822 
1726	 82.5312378539551 
1727	 85.9134595027817 
1728	 88.0020650743525 
1729	 92.5602646127484 
1730	 95.0606364254615 
1731	 98.1477730640036 
1732	 103.798539079148 
1733	 109.235930431098 
1734	 116.63570542129 
1735	 122.554953849463 
1736	 127.345364161038 
1737	 132.760511270032 
1738	 138.499171920258 
1739	 143.071058495785 
1740	 148.96017231388 
1741	 151.161123177515 
1742	 149.777889046218 
1743	 149.192691991476 
1744	 146.664022818852 
1745	 145.191903089976 
1746	 142.815999390154 
1747	 143.530899834396 
1748	 147.149123235417 
1749	 147.140025896483 
1750	 147.673490803517 
1751	 148.747389884528 
1752	 147.220773662216 
1753	 147.375839805744 
1754	 149.398181171724 
1755	 151.032580998818 
1756	 109.551124809638 
1757	 113.205238399635 
1758	 115.816415083998 
1759	 115.815212025542 
1760	 116.377485127706 
1761	 127.770640447088 
1762	 137.033906860753 
1763	 136.072516713759 
1764	 141.465105754943 
1765	 156.734034526347 
1766	 166.470832983842 
1767	 178.480885357234 
1768	 179.528335719574 
1769	 174.51824916814 
1770	 168.902426133866 
1771	 166.929207999899 
1772	 148.673140852675 
1773	 147.597724855132 
1774	 164.838884436844 
1775	 170.039217466591 
1776	 176.753000771493 
1777	 181.466228378626 
1778	 179.582548693084 
1779	 181.611515110678 
1780	 191.973226465326 
1781	 187.31379106136 
1782	 195.095406896856 
1783	 188.477449317977 
1784	 188.492459767053 
1785	 183.822316954774 
1786	 201.906071909404 
1787	 202.204446728162 
1788	 204.571628725581 
1789	 212.025353328363 
1790	 201.551233490053 
1791	 198.65035095942 
1792	 199.909487802756 
1793	 201.72409129989 
1794	 202.875988144271 
1795	 202.303630490944 
1796	 201.783096939988 
1797	 212.815637528197 
1798	 206.939360604507 
1799	 206.473358590087 
1800	 206.651700894846 
1801	 192.99664963778 
1802	 183.795673323788 
1803	 176.952397183347 
1804	 168.366480845704 
1805	 167.28520939493 
1806	 167.218576102123 
1807	 174.373693036153 
1808	 208.752489471775 
1809	 213.092964686954 
1810	 216.824776249254 
1811	 227.257820831498 
1812	 232.799814338057 
1813	 224.836975158816 
1814	 224.855866478165 
1815	 233.790009386981 
1816	 237.041590585543 
1817	 237.079880578166 
1818	 231.733660289767 
1819	 232.867766575721 
1820	 229.316473448418 
1821	 224.45478537884 
1822	 213.729110049873 
1823	 210.414958132977 
1824	 203.610210992304 
1825	 206.392911718667 
1826	 217.560691928863 
1827	 228.436932691114 
1828	 249.431960238371 
1829	 266.107601650069 
1830	 273.715489052193 
1831	 275.856681524885 
1832	 280.305855810407 
1833	 275.387006187947 
1834	 277.646023726392 
1835	 288.988585984018 
1836	 291.978631207532 
1837	 291.598262252381 
1838	 290.539129887318 
1839	 284.504562491678 
1840	 280.025141891649 
1841	 276.190208781462 
1842	 268.467665905272 
1843	 270.478564128242 
1844	 285.536749297715 
1845	 286.197045648466 
1846	 286.959162266735 
1847	 284.874403131192 
1848	 276.441663421657 
1849	 252.927692652326 
1850	 254.907044908034 
1851	 251.044939373176 
1852	 257.012421089115 
1853	 280.953643237089 
1854	 290.325941331003 
1855	 300.833424980571 
1856	 308.301782238083 
1857	 312.421937788411 
1858	 300.938133383073 
1859	 306.292938823379 
1860	 302.257190366485 
1861	 308.407682089219 
1862	 316.738354988549 
1863	 317.309327602434 
1864	 318.973801885262 
1865	 318.36062213625 
1866	 303.045610624016 
1867	 298.91435999876 
1868	 305.377049890458 
1869	 297.242095482834 
1870	 290.84135904335 
1871	 304.891996917124 
1872	 299.367842667026 
1873	 300.033062965335 
1874	 308.152763522222 
1875	 312.824603505954 
1876	 316.96371249504 
1877	 327.394464093362 
1878	 328.028621501126 
1879	 325.507405863122 
1880	 316.001976166833 
1881	 307.094593772806 
1882	 301.533922493588 
1883	 291.809166509021 
1884	 283.546107568824 
1885	 271.748081088925 
1886	 265.527440485075 
1887	 261.018377772849 
1888	 258.928836297758 
1889	 258.430197548461 
1890	 260.019918632927 
1891	 259.385461577885 
1892	 257.95484335697 
1893	 246.562543314906 
1894	 234.696270657761 
1895	 225.085101100891 
1896	 213.962656314735 
1897	 207.208262183851 
1898	 207.789252251689 
1899	 205.902204341797 
1900	 201.853491794561 
1901	 200.701624286575 
1902	 215.687456180881 
1903	 223.882340978241 
1904	 228.690260370634 
1905	 237.645665599498 
1906	 225.531872961382 
1907	 216.636663679906 
1908	 215.022073525539 
1909	 217.478305128719 
1910	 216.757878759565 
1911	 219.945096528306 
1912	 221.531624899214 
1913	 218.369017882762 
1914	 223.3811973258 
1915	 225.030206286985 
1916	 237.562661849015 
1917	 243.634162045006 
1918	 241.822323191952 
1919	 247.217921277557 
1920	 255.71942686329 
1921	 258.41364544741 
1922	 259.748818484985 
1923	 264.158369406131 
1924	 269.590972180435 
1925	 272.52315941418 
1926	 275.696701620511 
1927	 281.399772477487 
1928	 282.900495882396 
1929	 274.627774761615 
1930	 275.163580987 
1931	 281.146902677248 
1932	 281.835948851982 
1933	 280.386835839889 
1934	 282.019022103878 
1935	 288.865751126168 
1936	 285.705313616089 
1937	 274.710313871136 
1938	 271.976048155291 
1939	 267.223734452968 
1940	 255.562092428724 
1941	 259.772721794781 
1942	 281.41140837039 
1943	 287.999288260958 
1944	 295.187791441184 
1945	 298.588814393877 
1946	 296.181494713944 
1947	 294.702030346166 
1948	 289.0999336855 
1949	 287.988604489418 
1950	 288.868289449492 
1951	 288.007459055728 
1952	 283.774625193675 
1953	 291.681255071547 
1954	 292.111912215864 
1955	 291.119071272358 
1956	 287.038742160338 
1957	 279.053783657639 
1958	 276.623948834907 
1959	 269.12493030599 
1960	 270.67665894774 
1961	 286.845629415332 
1962	 292.073607968336 
1963	 300.937664404492 
1964	 300.388498085851 
1965	 288.257292219929 
1966	 272.815722521142 
1967	 270.365206676073 
1968	 267.966102149257 
1969	 270.550204146026 
1970	 292.493488121469 
1971	 293.091263564782 
1972	 281.123921411758 
1973	 276.074610791393 
1974	 259.896186547175 
1975	 255.828148034171 
1976	 262.276251979103 
1977	 266.968351480874 
1978	 279.411771168219 
1979	 287.658015401604 
1980	 288.316333323315 
1981	 285.805243529208 
1982	 279.179845075122 
1983	 257.988110715906 
1984	 254.829096325362 
1985	 257.236091217144 
1986	 259.861554749673 
1987	 276.744864752472 
1988	 281.067434428115 
1989	 276.785643625238 
1990	 276.879880634062 
1991	 276.360617411053 
1992	 270.311551542025 
1993	 279.198464147024 
1994	 281.176272084262 
1995	 281.969568560699 
1996	 286.449979079064 
1997	 283.071868875585 
1998	 270.797972955836 
1999	 264.132679347547 
2000	 255.301390398641 
2001	 248.153339803497 
2002	 243.968546788855 
2003	 238.079335170621 
2004	 230.341812949288 
2005	 224.831374160097 
2006	 220.683060088209 
2007	 220.412232471532 
2008	 221.675049785879 
2009	 220.12060847878 
2010	 220.960709917215 
2011	 221.624868024068 
2012	 222.204395579721 
2013	 232.443422511717 
2014	 226.824872956718 
2015	 206.576578978639 
2016	 196.803462810998 
2017	 178.021136810015 
2018	 170.560073416298 
2019	 174.846281713482 
2020	 179.868159528865 
2021	 189.456234591824 
2022	 189.465315262507 
2023	 192.20510829022 
2024	 208.435748623431 
2025	 212.601830410264 
2026	 212.445364440784 
2027	 216.537885878908 
2028	 217.83365891609 
2029	 216.184292200723 
2030	 219.86505202089 
2031	 215.577314723043 
2032	 202.384374710981 
2033	 191.894045846662 
2034	 179.853942406169 
2035	 169.964526310851 
2036	 164.163327803126 
2037	 161.145680974583 
2038	 157.7023803264 
2039	 153.580647214854 
2040	 160.960601997923 
2041	 160.566844695032 
2042	 163.237727816853 
2043	 173.587483684658 
2044	 178.987871050153 
2045	 179.108130073949 
2046	 182.931129250402 
2047	 189.986072781807 
2048	 194.489722794903 
2049	 196.690214713774 
2050	 202.860503266595 
2051	 207.014932804495 
2052	 194.717395432452 
2053	 192.715678710787 
2054	 192.448060938099 
2055	 193.644205918052 
2056	 206.234427883609 
2057	 206.669936349103 
2058	 205.592782882505 
2059	 199.39389196917 
2060	 180.286486650557 
2061	 170.988037418618 
2062	 157.811232030612 
2063	 153.13183341216 
2064	 154.966646806759 
2065	 164.576937898468 
2066	 168.478199738286 
2067	 182.891902141828 
2068	 192.637123868907 
2069	 193.218720900383 
2070	 189.233683219095 
2071	 173.921169538638 
2072	 154.079695590888 
2073	 138.662392611598 
2074	 130.118384348992 
2075	 133.278870140406 
2076	 137.341002913589 
2077	 152.808474887668 
2078	 156.096837872733 
2079	 158.178359020967 
2080	 153.942042854777 
2081	 143.189124946109 
2082	 128.963474035351 
2083	 113.123470854528 
2084	 102.396198641751 
2085	 90.5068841336052 
2086	 75.4872420328495 
2087	 62.5626467904136 
2088	 49.5937629920217 
2089	 40.7074991553094 
2090	 41.3696166367462 
2091	 45.8334334593205 
2092	 51.4207190571291 
2093	 49.2851447216287 
2094	 48.8124100627704 
2095	 48.8764487241369 
2096	 43.120134493048 
2097	 41.9721617921654 
2098	 46.3490781306785 
2099	 51.0888133859181 
2100	 42.9106948774554 
2101	 48.3316552406978 
2102	 54.7295379069338 
2103	 47.8788855054077 
2104	 56.2214551110623 
2105	 59.2364341588901 
2106	 61.3204813204449 
2107	 71.9564621397271 
2108	 71.699800357394 
2109	 76.8110677789856 
2110	 79.3208745451426 
2111	 77.6441767696374 
2112	 68.4738592907101 
2113	 58.5994387823106 
2114	 55.0355518706216 
2115	 47.0616838577452 
2116	 45.3673447134874 
2117	 62.5376825795987 
2118	 62.700470054406 
2119	 52.4507699932043 
2120	 52.9602784629881 
2121	 49.6150909410861 
2122	 30.9125402966101 
2123	 26.5316783899469 
2124	 26.3704908212632 
2125	 27.1176835545818 
2126	 44.5896150308716 
2127	 68.9393073891535 
2128	 81.7574034626146 
2129	 91.1229554670266 
2130	 94.3645412648637 
2131	 98.6523738873805 
2132	 112.590656389627 
2133	 108.153247516116 
2134	 107.8508235867 
2135	 102.159370356838 
2136	 73.1385684474901 
2137	 67.0672102686824 
2138	 76.4448509990124 
2139	 75.9941733436147 
2140	 81.2255227189417 
2141	 83.7239053514472 
2142	 78.5771964918005 
2143	 73.7232651241176 
2144	 68.2068005673382 
2145	 66.3703417924378 
2146	 60.2172900231886 
2147	 47.3798378103169 
2148	 48.9103110293308 
2149	 56.2748723501277 
2150	 56.1276316203821 
2151	 69.9565504573243 
2152	 67.1964474537898 
2153	 58.4494454988563 
2154	 59.5934953888509 
2155	 52.6093303120305 
2156	 57.2161528264847 
2157	 65.4663159083163 
2158	 71.1739412302335 
2159	 82.2727699103055 
2160	 84.1372665606534 
2161	 76.7911289987913 
2162	 74.6694145103166 
2163	 67.2042468147491 
2164	 70.299464726389 
2165	 79.4892446776267 
2166	 89.9542245244421 
2167	 101.035105567289 
2168	 111.747267881982 
2169	 112.466435575471 
2170	 103.137332517692 
2171	 105.08156921636 
2172	 98.867458266561 
2173	 89.7581134194198 
2174	 96.7828555718527 
2175	 89.2170901863985 
2176	 79.4948787737287 
2177	 82.4090973315441 
2178	 86.0199024766608 
2179	 100.714903214498 
2180	 110.779206434243 
2181	 107.886347138559 
2182	 101.845198689975 
2183	 94.6092425861161 
2184	 76.4062408331399 
2185	 66.9207010403279 
2186	 57.887848147941 
2187	 57.4250154441684 
2188	 62.2860495490784 
2189	 71.198507850423 
2190	 75.2500230958832 
2191	 79.3917982014856 
2192	 73.2190496744681 
2193	 61.9374042974625 
2194	 64.7456956837285 
2195	 66.1701572682517 
2196	 69.5620147658792 
2197	 76.1589104028279 
2198	 79.8319433915954 
2199	 86.5263164427616 
2200	 86.6659684216536 
2201	 81.001348842351 
2202	 71.7272150704805 
2203	 59.4232838424199 
2204	 56.0106502425351 
2205	 54.587938175161 
2206	 53.8091418778791 
2207	 54.7829066455761 
2208	 49.2520258618468 
2209	 42.2719870981972 
2210	 41.2995164826596 
2211	 45.7951983623364 
2212	 47.0759303757117 
2213	 52.3714035998664 
2214	 51.5217700729668 
2215	 47.2103814974529 
2216	 37.4467693708669 
2217	 18.7837275078763 
2218	 12.2964940689862 
2219	 6.64529152391377 
2220	 0.91391475393628 
2221	 13.0060062357107 
2222	 24.4138772831599 
2223	 35.0732663576783 
2224	 47.0147620132348 
2225	 41.5766443368741 
2226	 28.085843788145 
2227	 11.4074186771934 
2228	-0.893914117598293 
2229	 2.12574063765202 
2230	 10.9261141045804 
2231	 11.4103533584035 
2232	 9.56788340977699 
2233	 0.694841644795492 
2234	-4.87524149606781 
2235	 4.58282682012366 
2236	 6.35877801317162 
2237	 8.88461047355431 
2238	 6.7408571378413 
2239	 1.17579751620049 
2240	 4.72144705628176 
2241	 6.22733484120905 
2242	 11.6603862867884 
2243	 13.4901547770501 
2244	 10.1123572153333 
2245	 9.79644877859671 
2246	 8.64199472561018 
2247	 11.2649803090104 
2248	 16.2806252221286 
2249	 20.4933512736331 
2250	 31.7855709147422 
2251	 33.3189101111353 
2252	 30.5903400683026 
2253	 27.3271707693743 
2254	 16.2770374334955 
2255	 9.74731610521433 
2256	 2.33046281979147 
2257	 0.479952634493502 
2258	 0.681124768850903 
2259	-5.25079242867001 
2260	-5.08255156290717 
2261	-6.7852185522521 
2262	-9.76143990784965 
2263	-5.71361503259284 
2264	-5.79310936092017 
2265	-5.26573287756617 
2266	-6.42550948013924 
2267	-10.5799943035643 
2268	-4.32359936683898 
2269	 2.25236014072118 
2270	 9.72230492695528 
2271	 17.6060622081359 
2272	 27.4230919874491 
2273	 34.7931771709865 
2274	 38.0027583420257 
2275	 38.8290422901434 
2276	 24.0905551666269 
2277	 14.0571481419826 
2278	 9.64709370161431 
2279	 7.12323733523113 
2280	 10.5726519803415 
2281	 13.0468972538852 
2282	 16.1743835482669 
2283	 17.651054535142 
2284	 17.6694018292192 
2285	 9.14046351935163 
2286	 4.61776528995106 
2287	-8.84336931692328 
2288	-5.51350391420442 
2289	 14.8933264178519 
2290	 21.9344637552607 
2291	 36.0780194610426 
2292	 35.3537996613998 
2293	 12.7761232592308 
2294	 4.09336024217513 
2295	-8.45145746262121 
2296	-10.741304682416 
2297	-0.987888490099532 
2298	 8.69422307478811 
2299	 32.5882374672433 
2300	 36.2756696069514 
2301	 32.6742636768011 
2302	 22.7482362012059 
2303	-8.13600433955549 
2304	-23.0419095293362 
2305	-34.619090928748 
2306	-41.5137856233415 
2307	-39.9794936178005 
2308	-42.3199595787271 
2309	-45.6965193622691 
2310	-43.4339842921306 
2311	-41.3107864684203 
2312	-36.9943787848745 
2313	-26.8671522083237 
2314	-20.7872146309284 
2315	-21.514049228562 
2316	-17.8804038234283 
2317	-15.5273391916354 
2318	-12.5600217678666 
2319	-5.28708967265893 
2320	 2.80271693275188 
2321	 12.6568648773541 
2322	 12.5113504462051 
2323	 13.3422089245534 
2324	 6.59190885821502 
2325	-14.1133733223807 
2326	-20.0229527586073 
2327	-30.7474840319464 
2328	-33.175406432872 
2329	-17.6140058341342 
2330	-8.54153382161157 
2331	 10.8970489338505 
2332	 24.7432383357871 
2333	 28.984806422854 
2334	 35.154801045061 
2335	 28.073354777264 
2336	 18.9410608545871 
2337	 16.9226177947304 
2338	 11.1597620944635 
2339	 9.90163941450835 
2340	 13.1256979530864 
2341	 6.85833810129856 
2342	-2.52384921490574 
2343	-11.6166024727904 
2344	-13.0387565785063 
2345	-11.3523308601912 
2346	-16.4171717783268 
2347	-12.2697067426785 
2348	-12.5371630417431 
2349	-19.6422723998137 
2350	-3.40020754267493 
2351	 8.72032914418334 
2352	 14.9661532725475 
2353	 33.6558606181602 
2354	 29.4448922880772 
2355	 19.257878628067 
2356	 22.4633869848667 
2357	 14.4820593268097 
2358	 2.65982063228648 
2359	-2.36784526581558 
2360	-9.86357956122506 
2361	-9.39236104306329 
2362	-1.72285048290703 
2363	-0.234986621383726 
2364	-5.56422104147636 
2365	-11.7702288624192 
2366	-12.1781464468408 
2367	-8.53248471284549 
2368	-0.245461272248791 
2369	-2.34752649385669 
2370	-6.64686440385973 
2371	-9.40156578346437 
2372	-24.4096439041023 
2373	-25.3305630225107 
2374	-25.994842524103 
2375	-35.1255228890325 
2376	-25.1167722375121 
2377	-18.9742093530227 
2378	-19.2007855560351 
2379	-8.75599943980441 
2380	 2.40443451659465 
2381	 15.9268137831301 
2382	 32.1509508436488 
2383	 36.8084916141089 
2384	 30.3110908363247 
2385	 19.6155272199414 
2386	 6.63482104222071 
2387	-3.01642767290862 
2388	-2.76388691376624 
2389	 1.86597871590299 
2390	-5.365668671408 
2391	-7.67699830731788 
2392	-5.64547468274363 
2393	-14.100612028939 
2394	-14.6632507193818 
2395	-11.7465327807377 
2396	-8.88216622519228 
2397	-8.71257441373906 
2398	-9.58575734434473 
2399	-6.63190075825464 
2400	-12.6189468874728 
2401	-12.2134953035688 
2402	-0.771339370071798 
2403	 0.637439849685586 
2404	-7.33106197365931 
2405	-19.0628891310707 
2406	-35.6154342715468 
2407	-48.6666652014567 
2408	-52.0730443593059 
2409	-46.533360924813 
2410	-44.0333553022892 
2411	-36.5420202029104 
2412	-28.728356970104 
2413	-32.484627476047 
2414	-24.4224582695539 
2415	-29.1276182582866 
2416	-35.7993836312612 
2417	-19.745000561734 
2418	-13.5876504230925 
2419	 8.21445670093298E-02 
2420	 13.2364530994899 
2421	 7.56120759117911 
2422	 2.85385392952682 
2423	-6.68910034928419 
2424	-14.9007828423732 
2425	-13.1233564869533 
2426	-10.165141230201 
2427	-4.35502693143821 
2428	 6.03953415478812 
2429	 6.39493545691107 
2430	-3.73969130638799 
2431	-7.15173126279845 
2432	-17.2063302584272 
2433	-29.7916182968381 
2434	-25.0478248215828 
2435	-32.1993925323748 
2436	-27.220969065697 
2437	-8.15772459936265 
2438	-5.83127157209276 
2439	 4.81615531594132 
2440	 5.84155585251182 
2441	 1.4307820643015 
2442	 3.49892953349564 
2443	 1.15528016715142 
2444	-1.56121704004495 
2445	-4.93012019930528 
2446	-8.78826377768737 
2447	-17.520581586595 
2448	-25.0867580719995 
2449	-29.317085404476 
2450	-35.1871942668409 
2451	-38.616694240519 
2452	-31.5002661984043 
2453	-23.380055309398 
2454	-14.9454025642715 
2455	-5.60229310263973 
2456	-1.75688955556769 
2457	 3.36511667914751 
2458	 4.2261205524997 
2459	 13.2397504870202 
2460	 28.2336270170393 
2461	 33.2489907684697 
2462	 33.7113822856287 
2463	 27.2594178336861 
2464	 13.7267880098564 
2465	 1.04233931711277 
2466	-4.30735671987664 
2467	-2.22088569371626 
2468	-3.8499144194239 
2469	-14.0624004160042 
2470	-24.8309725358413 
2471	-34.8572701052184 
2472	-40.6787166371298 
2473	-44.4294902274735 
2474	-36.8422065837999 
2475	-29.1787370636709 
2476	-24.9793389376122 
2477	-8.74782323035344 
2478	-4.2871611901233 
2479	-2.74044715342146 
2480	-1.6065946771112 
2481	-12.4295412193165 
2482	-21.140800229816 
2483	-25.3813236860519 
2484	-23.4408964187649 
2485	-12.5347689690045 
2486	-3.4379535374473 
2487	 5.57022618053362 
2488	 8.99820965220773 
2489	-4.85880087254614 
2490	-15.6081097703534 
2491	-23.7997193989392 
2492	-27.5753753593032 
2493	-11.5802608041004 
2494	 2.97823360925343 
2495	 5.44984721202846 
2496	 11.0729595108502 
2497	 10.1358076213239 
2498	 6.87303326702212 
2499	 14.0449742714865 
2500	 12.7968442888947 
