Wavelength	2mm_GrayPLA00000.asd
350	 0.931888768556911 
351	 0.153432078887257 
352	 1.68909082132429E-02 
353	-0.926827922921217 
354	-0.199382763164251 
355	 0.575305687641696 
356	-5.31406884652397E-02 
357	-1.21913205324784 
358	-1.04943679720341 
359	 0.188127601313298 
360	 0.397747667103092 
361	-0.495294640447816 
362	-0.883780235783247 
363	 0.370308050303818 
364	 0.736966138164693 
365	-0.336704115599839 
366	-1.8182689495625 
367	-0.701060484485341 
368	 0.308633101529588 
369	 0.690723002509814 
370	 0.734182164348894 
371	 1.32016071952303 
372	 1.32905423906606 
373	 0.390666138034771 
374	-0.266154554731655 
375	 3.45401393589175E-02 
376	 0.815922997954761 
377	 0.930745385295782 
378	 9.56014745741252E-03 
379	-0.167603856170559 
380	 1.18373734330706 
381	 1.00740978650706 
382	 0.901858238681609 
383	 1.02870035021615 
384	 0.363325414378899 
385	-0.668477465072679 
386	-1.32900587336875 
387	-1.0103469561329 
388	-5.60671395039486E-02 
389	 0.669093369257338 
390	 0.633654105826587 
391	-0.372338151542021 
392	 3.36104161478186E-02 
393	 0.934667627814929 
394	 0.256740635111566 
395	-0.51778473973224 
396	 2.91974930402159E-02 
397	 1.90507487053647 
398	 1.62426315292135 
399	 0.808947618363793 
400	 0.103746732829291 
401	-0.459760985229313 
402	-4.08874455041673E-02 
403	 0.780545817089575 
404	 1.25391262474482 
405	 1.89160253964278 
406	 0.830583479701651 
407	-1.34850707446637 
408	-2.89753704012648E-02 
409	 0.631909961569282 
410	 8.68223872745631E-02 
411	-0.677812356567704 
412	-0.442588327089805 
413	 7.38605696524972E-02 
414	 0.143506263165305 
415	-0.183292872611847 
416	-0.698003052831931 
417	-1.00836537992891 
418	-0.549026198215021 
419	-3.00372275813301E-02 
420	-7.12651729604694E-03 
421	-0.59641118476731 
422	 0.239914203916693 
423	 0.934037105597666 
424	 0.842005011173228 
425	 1.5900206450459 
426	 1.51106315097915 
427	 0.489817077810276 
428	-0.694436159852519 
429	-0.491910740974548 
430	-4.98288394420587E-02 
431	-0.321106546186427 
432	 0.779797147301322 
433	 0.592211081684452 
434	-0.929496165595478 
435	-0.332572824822625 
436	-0.176829602122595 
437	-0.55654345635813 
438	-0.630091948772758 
439	 0.796480192136408 
440	 1.11300657669982 
441	-0.777209427306194 
442	-0.716749042345133 
443	-0.269740753307413 
444	-0.146892838869377 
445	-0.423547143090181 
446	-0.42538545996536 
447	-5.53372201026618E-02 
448	 0.551115740523367 
449	 1.2148779349209 
450	 1.06538521486918 
451	-1.11341377147412E-02 
452	-0.537341119363286 
453	-0.461959226086299 
454	-0.291562779302403 
455	-0.965322774770297 
456	-0.983229024014356 
457	-0.392577348730385 
458	 0.236875139758147 
459	-0.277610235926326 
460	-0.589318949024532 
461	-0.24253897988085 
462	-0.717515811579872 
463	 0.143713793658704 
464	 0.998363406561784 
465	-1.12514269903707 
466	-1.72939174198965 
467	-0.867132445864244 
468	 0.310093017346681 
469	 0.191654207117132 
470	 0.525848076889893 
471	 1.16355394314316 
472	-1.49039870229788 
473	-2.00694906872252 
474	-0.283968244584903 
475	 1.23617733749076 
476	 1.59596116479264 
477	 0.914198480374727 
478	-0.207106129957533 
479	-0.545241844472575 
480	-0.710467390040821 
481	-0.908255759010131 
482	-0.781070893107032 
483	-0.105096646879209 
484	 0.833557146584156 
485	 1.38996648422787 
486	 0.023243379855488 
487	-1.37182185242396 
488	-1.03663973860324 
489	 0.829246458562725 
490	 0.764532910790246 
491	-1.51020494467805 
492	-2.27210125252451 
493	-0.8445232063018 
494	 0.458334275864967 
495	-1.557234149735 
496	-1.06091236113897 
497	-1.05256210332699 
498	-3.57113074163372 
499	-3.10979558756971 
500	-0.129392594982709 
501	 2.75400936454056 
502	-0.393172907712284 
503	-1.67842262525962 
504	-1.02410513672211 
505	-1.37319851294852 
506	-1.50832296280163 
507	-1.8051482008691 
508	-2.23437110172565 
509	-0.539288856654039 
510	 1.12550579786046 
511	 1.46117789993661 
512	 5.43512861433774E-02 
513	-0.561226235699453 
514	-0.561542680519179 
515	-1.16950582782479 
516	-0.35745689796081 
517	 0.887298208351083 
518	 1.30303225232037 
519	 0.408438503803342 
520	-0.578401594685188 
521	-0.943541592077657 
522	-0.509153241133707 
523	-1.20111739521911 
524	-1.92269468966202 
525	-0.381570936449104 
526	-0.33310638957347 
527	-0.838394514398605 
528	-0.649536106126702 
529	-0.995996738243248 
530	-0.931220210791972 
531	-0.27562571519809 
532	-0.155148837546322 
533	 0.113220847403695 
534	-0.176078062249432 
535	-2.25021524626637 
536	-3.17874621265025 
537	-2.04547914889109 
538	 0.646918232997084 
539	 0.340563609080064 
540	 0.489901433083927 
541	 2.08702481343311 
542	 0.976927314026913 
543	-0.797445899861243 
544	-2.23207603441702 
545	-2.64706922453937 
546	-0.709940044127219 
547	 1.21200604998867 
548	 0.712870922885751 
549	 0.513905542300144 
550	-2.99060427325667E-02 
551	-0.995322309451961 
552	-0.650054627261256 
553	-0.893153070846475 
554	-1.36948464029569 
555	-0.089676721155648 
556	 0.519665205001391 
557	-9.27183328416886E-02 
558	-1.54482674501669 
559	-1.1430464963142 
560	-0.726346091635079 
561	-1.32793066024835 
562	-0.914480664370253 
563	-0.456527544115767 
564	-0.387984759952926 
565	-0.759280417598654 
566	-0.709887807606979 
567	-0.518129259456143 
568	-0.761708718830786 
569	-0.889191298717508 
570	-0.25299912821513 
571	 0.830688446699076 
572	-1.20831698383523 
573	-1.67007948964836 
574	 3.29845721490945E-03 
575	-0.593819919433101 
576	-0.68944886300861 
577	-0.315930039542661 
578	-0.432624245079681 
579	 2.11450248644258E-02 
580	-0.112656289330623 
581	-1.38531405587506 
582	-0.746525578949669 
583	-0.424744422694728 
584	-0.968329829734353 
585	-0.119389448935334 
586	 0.183796893822504 
587	-0.146218433420565 
588	-0.36542729522355 
589	-1.61327326855788 
590	-2.28241216974069 
591	-1.08283886858253 
592	-0.828813240653233 
593	-1.21567314656663 
594	-1.52167323421054 
595	-0.220152457340346 
596	-0.193598912849584 
597	-0.984837411849118 
598	 8.34159520700609E-02 
599	-0.438529449678663 
600	-1.29379563465815 
601	-0.542871297986872 
602	-0.19450615767167 
603	-0.606985011436882 
604	-1.29339836929747 
605	 0.100259671610302 
606	 1.15807565278121 
607	 0.97404514373269 
608	-0.16964203549855 
609	-0.840539192714924 
610	-1.23656205013493 
611	-1.97089329893468 
612	-1.65085795240163 
613	-1.24793451023196 
614	-1.41526438028279 
615	-0.907386879341024 
616	-0.569911054422334 
617	-0.572451710227007 
618	-0.27110082973309 
619	 0.102302470240652 
620	 0.335836533200848 
621	 0.195897850824999 
622	-0.540766419843833 
623	-0.707022691265387 
624	 0.270080070641536 
625	-0.212369336232554 
626	-0.787587395702836 
627	-0.813893084703469 
628	-0.964413415407844 
629	-0.568108748027078 
630	-2.10053812762611E-02 
631	-0.286240064297549 
632	-0.79114185651388 
633	-1.2150164512601 
634	-1.34014641148722 
635	-1.24946488150702 
636	-1.05587034863388 
637	-0.764031462540956 
638	 3.66022462618691E-02 
639	-0.468273332934469 
640	-1.40907464020363 
641	 0.111426616412551 
642	-0.437504782181125 
643	-2.33844037320536 
644	-3.28885810719274 
645	-1.25746752856687 
646	 0.649670560407221 
647	 0.444526320606136 
648	-9.41874972725732E-02 
649	 0.139627210281537 
650	 0.952677696151727 
651	 0.779360898898299 
652	 0.705126617284131 
653	 0.623193015937398 
654	 0.082968430354201 
655	-1.07123455738399 
656	-0.676278832016328 
657	 1.75640548017825 
658	 0.330260962428849 
659	 0.117687911355922 
660	 1.85680784941938 
661	 0.611191963550065 
662	 9.00714184821318E-02 
663	 0.752323981884846 
664	 1.61953560156751 
665	 0.343696177211868 
666	-0.583332213115143 
667	 0.654250700723607 
668	-0.522569543037698 
669	-0.838990088534367 
670	 0.563551771463875 
671	 0.345292860720472 
672	-0.144080169247928 
673	-0.429005710458433 
674	-0.33886436124681 
675	-0.601274532536993 
676	-0.543049814595253 
677	 0.34475565331498 
678	 0.280325415100587 
679	-0.230264037135084 
680	-0.430099499535459 
681	 1.04447237781228 
682	 1.23693438516973 
683	 0.197620934670311 
684	 1.95349973081589E-02 
685	 0.97850011386417 
686	 1.63013100795694 
687	 0.639535159710236 
688	 0.766418340817903 
689	 0.559098046270805 
690	-0.403785644496782 
691	 0.797762583798615 
692	 1.45391101727961 
693	 0.598206042246078 
694	-1.46902131649834 
695	-0.791441092180151 
696	 0.58920522065936 
697	-0.59131172489525 
698	-0.945472251564421 
699	-0.717865152866014 
700	-0.263838152037575 
701	 0.892263059305449 
702	 2.16010764810291 
703	 2.74217269040647 
704	 1.49639510465374 
705	 0.635335199325892 
706	 0.262729234113702 
707	-9.39846708111007E-02 
708	 1.16578137153875 
709	 1.96984583295085 
710	 1.00780098328655 
711	 0.231824366853836 
712	 0.998674745605339 
713	 2.54868593424965 
714	 1.50108939569106 
715	 1.00834410756264 
716	 1.37429654626714 
717	 1.75361852119346 
718	 0.557139129731032 
719	 0.173943407560016 
720	 1.86256656859725 
721	 1.42825580988837 
722	 0.244110590908487 
723	-0.557522638560937 
724	 0.030693045719149 
725	-1.08354327551721E-02 
726	-0.286735035977578 
727	 0.384127109284327 
728	-0.335416955718194 
729	-0.895863883183285 
730	 4.88463393251586E-02 
731	 1.23471823086624 
732	 1.61007837320991 
733	 1.23976688545357 
734	 1.7333096600239 
735	 1.67151351931491 
736	 0.802481640149733 
737	-0.561905465083733 
738	-1.31513246212391 
739	-1.64337005357135 
740	-1.52362578021472 
741	 1.06712195635725 
742	 2.49998060136475 
743	 1.8318137370979 
744	 1.73694003417628 
745	 1.06874736836702 
746	-1.19131453860679E-02 
747	-0.845513255607412 
748	-0.99543092173735 
749	-0.545693947258543 
750	 9.72196759378969E-02 
751	-0.343191486777839 
752	 0.335541538746653 
753	 1.84379158698921 
754	 0.429538639993204 
755	-0.352688071769026 
756	-0.166183308972833 
757	 9.30581885764599E-02 
758	 0.523165675488951 
759	 0.958813963723631 
760	 1.128616817611 
761	 0.373240956814093 
762	-0.162941618900109 
763	-0.321572776627101 
764	-1.21239408889527 
765	-0.312547283136515 
766	 1.34590402246202 
767	 1.36457516416706 
768	-1.34888733314183 
769	-2.74290945336335 
770	-0.551204073761409 
771	 0.828463461897305 
772	 0.383036187023358 
773	-1.01358815523048 
774	-0.367277489739136 
775	-0.126495612041676 
776	-0.523873681831402 
777	-0.926847782909313 
778	 0.491388280381369 
779	 1.14234152697888 
780	-0.322537390443737 
781	-1.25028381859856 
782	-1.39449598508906 
783	-0.886526585449007 
784	-0.282227561795828 
785	-0.12765947620275 
786	-0.143531797723351 
787	 0.189648849870344 
788	 1.33112160479554 
789	 0.841550339848199 
790	-1.28965547590914 
791	 0.693577181467662 
792	 1.23685515265952 
793	-5.43988972509989E-02 
794	-0.480535566999175 
795	 0.325919036491523 
796	 1.12250106414472 
797	 0.659638051639342 
798	-0.52867262047724 
799	-0.865467743238038 
800	-9.99122675828111E-02 
801	-3.59581267456424E-02 
802	-0.428160215568646 
803	-0.975701830936519 
804	-1.25300105965098 
805	-1.1498994338349 
806	-1.12199946539705 
807	-1.25404713024305 
808	 0.198690809846673 
809	-0.351458461976826 
810	-2.17542740022423 
811	 0.314990202219936 
812	 0.944281477074881 
813	-0.307316060252798 
814	-1.45090866207724 
815	-1.62521847902508 
816	-1.30000605929456 
817	-0.866793349047316 
818	-0.176821784532332 
819	 0.950754279223024 
820	 1.71424858318353 
821	 0.724832223882617 
822	 1.0448814829528 
823	 1.04282605176456 
824	-0.796377093317729 
825	-0.8145092788759 
826	-0.120979170945158 
827	 0.293656791099239 
828	-0.265796275105845 
829	-0.539761521891116 
830	-0.671886686926097 
831	-1.17507930689772 
832	-0.387539656904626 
833	 1.29587914698278 
834	 2.53093065151128 
835	-0.287071244227494 
836	-1.44264106711172 
837	-0.474584474282271 
838	-1.07057950276353 
839	-0.72228231647339 
840	-2.44658324519663E-02 
841	 3.78022490177466E-03 
842	-3.63231341756409E-02 
843	-0.299881172577117 
844	-0.741561463780105 
845	-1.02091987259872 
846	-0.346280960243705 
847	 0.44627044948283 
848	-3.63354336977526E-02 
849	-0.873651781228677 
850	-1.25294281925619 
851	-0.898704507056739 
852	-0.798268671311147 
853	-0.677440616190028 
854	-0.47552441942893 
855	-0.25602148086057 
856	 0.262382252312025 
857	 5.63951426141825E-02 
858	-1.39480537229734 
859	-1.5522137921952 
860	-0.606665769476225 
861	 0.823378360852196 
862	 1.75397781022091 
863	 0.238960747772656 
864	-1.70205903033565 
865	-1.23643184930799 
866	-1.07263718602948 
867	-1.53719624922322 
868	-2.12811972977943 
869	-0.976840269012418 
870	 0.173695642376018 
871	 0.42683430679308 
872	-0.638194812527865 
873	-2.27749785250039 
874	-3.25575092077289 
875	-2.86545016787502 
876	-1.87869431498428 
877	-0.813158376487602 
878	-0.168152505047272 
879	-0.383773294075248 
880	-0.821493807768015 
881	-0.852319918287454 
882	-0.275745732916456 
883	-0.491795157386361 
884	-0.989438557153784 
885	-1.10990051259181 
886	-1.26496057714418E-02 
887	-0.876169289589947 
888	-1.74668263004002 
889	-0.138868923794298 
890	-0.29776847477386 
891	-0.661488978827203 
892	-0.499630778244071 
893	-0.929064814947206 
894	-2.29148927979914 
895	-2.68812269869475 
896	-9.59158559527065E-02 
897	 0.885535996187972 
898	 0.916499457179649 
899	 0.512388455260012 
900	-1.5944379173896 
901	-2.10950532087492 
902	-1.3178528007925 
903	-1.19639796713508 
904	-1.38232138431349 
905	-0.926205667708255 
906	 0.244763228097967 
907	-4.49618691960613E-02 
908	-1.42954349758355 
909	-2.37451035676265 
910	-0.901330750046757 
911	-0.644086565857615 
912	-0.585878451470026 
913	-9.53966900906958E-03 
914	-1.24196189746471 
915	-2.44875407982508 
916	-2.7381190709568 
917	-1.91163002180878 
918	-0.711303260498878 
919	-0.624902896819447 
920	-1.87487553298482 
921	-0.546629346319403 
922	-0.434116988762024 
923	-1.41524079703473 
924	-0.684192002943083 
925	-1.52356615776156 
926	-1.95803308101856 
927	-0.733574741867725 
928	-2.05009380579377 
929	-1.71689390707981 
930	-6.53801665598674E-02 
931	-0.624260405716718 
932	-7.75139675647876E-02 
933	 0.18891970647199 
934	-1.04691019044977 
935	-2.04712218670232 
936	-2.42283541559625 
937	-2.04121360057023 
938	-1.08366521652998 
939	-0.764726086388505 
940	-1.21877737054765 
941	-1.97243795302681 
942	-1.5557475925068 
943	-0.876354488374859 
944	-0.143766223628937 
945	 0.746162042701704 
946	 3.32415488037858E-02 
947	 7.21187688945289E-03 
948	 1.60191368202043 
949	 0.707786504708744 
950	 0.145363431354209 
951	 0.236333792403931 
952	 2.98203846069736E-02 
953	-0.403006509658014 
954	-0.462445616578547 
955	 0.115816553143699 
956	 0.969775969568596 
957	 0.167073013777028 
958	-1.03828577197599 
959	-0.472208593965434 
960	-1.18866111786175 
961	-1.34701567076159 
962	-0.51332747587327 
963	-1.33742027624095 
964	-1.15667009780202 
965	-0.847041885357066 
966	 5.17553857006998 
967	 5.61527795856252 
968	 4.70517306633612 
969	 4.50522037789587 
970	 6.35947596920695 
971	 5.72700538452805 
972	 3.19968652108396 
973	 2.58222043418788 
974	 0.158067223963407 
975	 0.149902795810958 
976	 3.28526369668253 
977	 4.47043485205167 
978	 5.71107801052718 
979	 5.48329118092621 
980	 2.14507626985158 
981	 1.89741307112648 
982	 0.28570622329499 
983	-1.7174054943899 
984	 1.55948169636571 
985	 4.19315493965357 
986	 3.73736065778459 
987	 3.29745787225874 
988	 2.61086491851981 
989	-4.76680962276103 
990	-4.91157803204723 
991	 1.57215458889123 
992	 3.55377346109822 
993	 6.11388975096812 
994	 9.36837575174195 
995	 7.7555132565796 
996	 5.57533110896704 
997	 4.74928018655202 
998	 3.75360669852781 
999	 3.63156211682502 
1000	 2.8809793066952 
1001	 0.947476658592937 
1002	 0.9826186678831 
1003	 1.48999749093018 
1004	-0.174463317571924 
1005	 0.406548377582299 
1006	 4.22613029858859 
1007	 5.59339900017638 
1008	 6.0083013836447 
1009	 7.14889983265642 
1010	 8.94863984474039 
1011	 8.148315642035 
1012	 9.01945350318386 
1013	 11.9719668878733 
1014	 11.1170077538396 
1015	 8.07537805092577 
1016	 3.92569164450033 
1017	-0.233632898243976 
1018	-0.666430349320646 
1019	 3.72082504782988 
1020	 9.09748411186298 
1021	 11.3334713152511 
1022	 9.43769229743856 
1023	 6.64576664580686 
1024	-0.6048887572991 
1025	-7.67594593466405 
1026	-7.64956708957554 
1027	-4.4122715511676 
1028	-4.17753840830495 
1029	-0.547125622208167 
1030	 3.51050958539846 
1031	 2.71508671641347 
1032	 3.61757731262104 
1033	 5.45899105628068 
1034	 0.618000512886192 
1035	-1.82759016853393 
1036	 3.32030036043499 
1037	 3.5183505264083 
1038	 3.32358689148593 
1039	 6.95776136392494 
1040	 7.83151406601082 
1041	 5.47333234080114 
1042	 5.45728759412537 
1043	 7.3083082819518 
1044	 5.13516633008202 
1045	 3.9298391806638 
1046	 4.55693227026199 
1047	 4.47071529000734 
1048	 4.70924905121901 
1049	 3.09292489874617 
1050	 0.582739447373175 
1051	 0.614842779872858 
1052	 3.65821920603772 
1053	 8.68387371556181 
1054	 11.4868538001785 
1055	 9.70893299505826 
1056	 5.82834965018231 
1057	 3.24521348320247 
1058	-1.56630308183459 
1059	-3.17305357560089 
1060	-3.17203944941436 
1061	-2.17729945983467 
1062	 0.997557499897939 
1063	 1.84852736311287 
1064	 4.34636705089188 
1065	 6.53849680048845 
1066	 3.07863142606774 
1067	 2.3535283003474 
1068	 3.35914581818469 
1069	 2.93307988650912 
1070	 5.09169745309502 
1071	 6.11522644641831 
1072	 4.22643764459121 
1073	 4.31342346256527 
1074	 5.47941731389606 
1075	 8.61920359277077 
1076	 9.901135889165 
1077	 11.81941456825 
1078	 12.0271981891056 
1079	 8.85498597007558 
1080	 8.50691590379319 
1081	 11.4964857275735 
1082	 11.2368090801526 
1083	 9.57794014796711 
1084	 8.3940216000367 
1085	 7.88969456278847 
1086	 5.74778157872938 
1087	 6.75924124781127 
1088	 7.35736013242987 
1089	 5.25144131159911 
1090	 2.05631482183202 
1091	 0.773011162193423 
1092	 0.256028586072479 
1093	 1.37665554070092E-02 
1094	 1.70620488929798E-02 
1095	 1.32032286024418 
1096	 4.53826890337033 
1097	 5.54635651531595 
1098	 7.26735830484162 
1099	 7.65174558508616 
1100	 4.4760799763243 
1101	 3.4544888329609 
1102	 4.57459163235017 
1103	 3.91865829853481 
1104	 1.23995708180438 
1105	 1.74438013885058 
1106	 2.44231316029785 
1107	 1.27559309772398 
1108	 3.93774856403778 
1109	 7.04825745060784 
1110	 8.79491370335812 
1111	 10.2984995492704 
1112	 11.2817888388018 
1113	 11.9929548789475 
1114	 11.2952299061796 
1115	 7.17190622029083 
1116	 8.0172201972962 
1117	 10.9850706926582 
1118	 12.9912538583564 
1119	 19.334487824655 
1120	 21.7987559455946 
1121	 20.9109535025192 
1122	 20.0388791713265 
1123	 17.2703048854243 
1124	 15.9614972146145 
1125	 13.4340705305909 
1126	 13.6936115024177 
1127	 13.2066455110782 
1128	 13.3566010308828 
1129	 15.0656247971716 
1130	 17.9402125360307 
1131	 19.1964026311298 
1132	 22.5635973432982 
1133	 22.1742715659152 
1134	 17.8958352587691 
1135	 16.2155492884787 
1136	 14.157775198635 
1137	 12.7253121473655 
1138	 11.5763553791564 
1139	 11.6608132357577 
1140	 12.8081739087519 
1141	 13.425677472937 
1142	 15.4873443091629 
1143	 16.4912831603106 
1144	 16.325217692138 
1145	 16.3781350645719 
1146	 15.422923299394 
1147	 15.9136607785035 
1148	 17.0396320457176 
1149	 19.2269413701759 
1150	 19.4952962902885 
1151	 19.8757158489713 
1152	 20.2482942581176 
1153	 18.2597035143712 
1154	 19.4095217490807 
1155	 23.6928912072498 
1156	 25.2654108902917 
1157	 28.6489317124436 
1158	 27.2243967756641 
1159	 19.7649743880508 
1160	 17.6351723672302 
1161	 15.097517429984 
1162	 13.7142638693305 
1163	 16.4920938432273 
1164	 17.6480850195426 
1165	 17.3682768059223 
1166	 17.6058922284297 
1167	 18.2136067393527 
1168	 20.0274243256661 
1169	 18.398648879916 
1170	 19.0784834877452 
1171	 18.7467943629741 
1172	 17.1500058430798 
1173	 17.6788143933617 
1174	 20.1728677465583 
1175	 19.6216004248136 
1176	 18.8545335427489 
1177	 18.1882299120313 
1178	 15.0705170092921 
1179	 14.0401784124009 
1180	 14.2679214645382 
1181	 14.6678414929425 
1182	 16.1888273695593 
1183	 16.3449353599301 
1184	 15.8353992603247 
1185	 16.363331021849 
1186	 16.0747698511625 
1187	 17.0288464244856 
1188	 21.5900211975578 
1189	 22.7988743964373 
1190	 22.6000790742024 
1191	 21.4155223051849 
1192	 17.7261231348383 
1193	 16.699497249943 
1194	 19.4541661985727 
1195	 20.8049201108346 
1196	 21.6314424209615 
1197	 22.8530449675648 
1198	 24.7289552026417 
1199	 26.2158163190024 
1200	 26.7967940053056 
1201	 28.4246452785869 
1202	 28.5254044754636 
1203	 26.7367290580719 
1204	 25.5417965343498 
1205	 24.2565756218194 
1206	 23.6678465875263 
1207	 21.717184701643 
1208	 20.8842218121437 
1209	 21.4999024383443 
1210	 22.4005535451317 
1211	 24.583234641434 
1212	 25.860851265616 
1213	 25.3075530340551 
1214	 25.4015865149969 
1215	 22.4570315425653 
1216	 23.2728715462714 
1217	 26.5076802550919 
1218	 26.0001893239165 
1219	 24.046643626872 
1220	 21.1241790776933 
1221	 20.0793774261292 
1222	 17.2783756012987 
1223	 18.2359055030218 
1224	 23.934627456939 
1225	 25.9037556733733 
1226	 28.7329217411028 
1227	 29.6230120287571 
1228	 26.527123922009 
1229	 26.0149753355397 
1230	 26.4889222558643 
1231	 25.2680501876815 
1232	 24.271183895004 
1233	 23.8860865495216 
1234	 22.3581042588584 
1235	 22.0016375713126 
1236	 22.3448136982608 
1237	 23.4613510447002 
1238	 26.8270930325531 
1239	 27.6110359593934 
1240	 27.0374913330792 
1241	 28.0534996315053 
1242	 29.2766493278647 
1243	 29.7467651699401 
1244	 30.3177579431506 
1245	 32.8489309628708 
1246	 33.5568157370799 
1247	 31.8771868113066 
1248	 33.5461160680075 
1249	 33.3712435024866 
1250	 32.6836170171027 
1251	 31.3748338327569 
1252	 30.0411899105797 
1253	 26.9151306798457 
1254	 27.3195679114146 
1255	 29.4391640293476 
1256	 30.4814125796001 
1257	 33.799484358885 
1258	 34.5318546367266 
1259	 31.8022059043445 
1260	 31.9882305613391 
1261	 33.2321027277121 
1262	 34.8528956060233 
1263	 35.7913481982183 
1264	 36.5748538388687 
1265	 33.6830087790391 
1266	 29.3021105346127 
1267	 28.2061229655899 
1268	 29.3516809216358 
1269	 31.3606770387463 
1270	 33.9718022520704 
1271	 33.9241352722927 
1272	 32.9712507400904 
1273	 32.7569695392125 
1274	 31.000638979927 
1275	 31.3226496478972 
1276	 32.7751379686035 
1277	 31.32443199305 
1278	 32.2826942745048 
1279	 33.4844139149779 
1280	 34.4500725382126 
1281	 33.5261119309781 
1282	 32.9174311359524 
1283	 32.7661155807986 
1284	 31.0312638072217 
1285	 31.3431788482215 
1286	 34.2392491054479 
1287	 34.1367355476233 
1288	 33.770845974979 
1289	 30.7552043434662 
1290	 25.6123123231778 
1291	 24.2964392129574 
1292	 22.890383020127 
1293	 21.7362609346818 
1294	 23.9681462929895 
1295	 25.725503946391 
1296	 28.7025367002796 
1297	 32.7444922823413 
1298	 32.4912406555456 
1299	 34.2346589571474 
1300	 35.3747579398179 
1301	 33.3376921294034 
1302	 32.8903570354752 
1303	 30.020535314358 
1304	 26.4002802217162 
1305	 25.848695347436 
1306	 29.0399109766693 
1307	 33.7224854336151 
1308	 36.4068640079161 
1309	 37.7697415158233 
1310	 36.1125114299053 
1311	 34.1615781104818 
1312	 33.9183304606803 
1313	 35.1441982950379 
1314	 35.5254638436888 
1315	 37.1139903367725 
1316	 36.9968934916578 
1317	 35.9769641986252 
1318	 35.0566777557259 
1319	 33.3165900758507 
1320	 31.6848757387192 
1321	 31.0093542444456 
1322	 31.7890484632375 
1323	 32.7399663593418 
1324	 35.0539685134879 
1325	 36.4515042741773 
1326	 35.6365820090398 
1327	 36.6481821423925 
1328	 35.3297496690332 
1329	 32.9932119007842 
1330	 31.4016116538074 
1331	 28.5258877390163 
1332	 27.8184633000223 
1333	 28.8688461392087 
1334	 30.4915191763881 
1335	 32.550092146127 
1336	 34.1944109386352 
1337	 35.3148232030462 
1338	 36.3570108487606 
1339	 37.425945735769 
1340	 37.0428194997875 
1341	 36.7100686632127 
1342	 35.9535572830296 
1343	 34.2322430775078 
1344	 33.3260093277628 
1345	 32.9757593811583 
1346	 34.485267459181 
1347	 34.9009392561342 
1348	 36.0891219853924 
1349	 35.6622965668162 
1350	 32.3234809216617 
1351	 31.6558845308072 
1352	 31.4457557777551 
1353	 32.2273154952086 
1354	 35.1781096901025 
1355	 37.712873121725 
1356	 37.3822601417896 
1357	 36.4883402989819 
1358	 36.3835304092766 
1359	 36.5646974449833 
1360	 35.2610772269958 
1361	 35.0268011629643 
1362	 32.3381394881572 
1363	 29.5822652135687 
1364	 30.18183956368 
1365	 31.794864717426 
1366	 33.8036993895745 
1367	 33.8392603354318 
1368	 34.1190289086895 
1369	 32.6809850172811 
1370	 30.0063691374171 
1371	 28.8984125129228 
1372	 27.1990689256286 
1373	 26.5940598758413 
1374	 28.5635090942054 
1375	 30.6682880146398 
1376	 31.4330419902374 
1377	 32.1967214814984 
1378	 33.5588358134551 
1379	 31.1142927636422 
1380	 26.7808946692859 
1381	 25.8795475832715 
1382	 24.6387982310702 
1383	 27.3944279826102 
1384	 35.3379099076109 
1385	 40.2082820630133 
1386	 42.5072962102263 
1387	 42.4063920504651 
1388	 39.8836346062607 
1389	 39.2337948170705 
1390	 39.1295707409516 
1391	 41.2123899505704 
1392	 40.6349336774837 
1393	 38.2238001454746 
1394	 37.1917941299473 
1395	 35.0385325503159 
1396	 35.6998194347974 
1397	 37.5873999501422 
1398	 37.9279463488593 
1399	 38.4264856278112 
1400	 37.5521984057259 
1401	 33.967127496329 
1402	 32.4171636228974 
1403	 31.6523938316013 
1404	 29.031301978902 
1405	 28.9464931731315 
1406	 30.4621712600615 
1407	 32.0522384992561 
1408	 34.1300475668214 
1409	 36.3202804650472 
1410	 37.9940961921545 
1411	 38.4361251803873 
1412	 41.7828129018655 
1413	 43.2381307376451 
1414	 43.6068721734676 
1415	 45.1419491331735 
1416	 40.424516546367 
1417	 37.3945960866643 
1418	 37.362377738054 
1419	 35.3949982906675 
1420	 36.0934240378246 
1421	 36.8403891531573 
1422	 35.1996549678209 
1423	 35.1485299589531 
1424	 34.7451256509513 
1425	 33.7261287168257 
1426	 34.3074967144069 
1427	 35.6506373385864 
1428	 38.2222889350329 
1429	 40.3523954881872 
1430	 41.3275163005181 
1431	 41.7486536188144 
1432	 40.9165773257992 
1433	 39.8607899250213 
1434	 41.4817792615282 
1435	 43.7999744534781 
1436	 45.4058428501141 
1437	 47.2874928077339 
1438	 47.3035655402733 
1439	 44.1292376617367 
1440	 41.9371944555297 
1441	 41.1104984244465 
1442	 39.0805857408702 
1443	 40.966388145018 
1444	 43.0366650633509 
1445	 42.7978566116438 
1446	 40.6805263273685 
1447	 40.5920221721751 
1448	 40.3592456093044 
1449	 39.4149367413248 
1450	 38.7709364353924 
1451	 38.2434598803983 
1452	 36.801507850027 
1453	 35.2150589985634 
1454	 36.5690993770309 
1455	 39.9198272344491 
1456	 43.7443120895649 
1457	 46.5088561634039 
1458	 46.5610325561544 
1459	 47.3862127603481 
1460	 48.0330757062593 
1461	 47.0126846202465 
1462	 46.1739562957544 
1463	 45.7585697836524 
1464	 44.4272491213334 
1465	 41.2782869853299 
1466	 42.5216015164771 
1467	 44.205465785038 
1468	 41.7402535906227 
1469	 42.5433571122901 
1470	 42.688788809358 
1471	 41.6295808727648 
1472	 43.9087767571303 
1473	 44.4025071672369 
1474	 42.50079716052 
1475	 41.4833451572963 
1476	 39.9151568169705 
1477	 39.762914287784 
1478	 42.8608144844602 
1479	 45.0318919166751 
1480	 45.8104391743947 
1481	 47.7342790738167 
1482	 48.3415818104464 
1483	 45.7916830239478 
1484	 45.080745555257 
1485	 45.8986775873376 
1486	 44.3444193737167 
1487	 44.7669246150646 
1488	 47.7906769757767 
1489	 47.9317146390221 
1490	 47.2887553497843 
1491	 47.1292605928452 
1492	 43.7151887986844 
1493	 41.1589313529888 
1494	 43.2167287109305 
1495	 45.5906883802455 
1496	 49.4051546505732 
1497	 50.0851979753043 
1498	 45.3921198826506 
1499	 43.1794084924612 
1500	 40.6605943787626 
1501	 39.9542457017957 
1502	 43.6897884563683 
1503	 46.6279049038022 
1504	 47.4070614458957 
1505	 49.5688885217806 
1506	 51.4540881236147 
1507	 51.1780649832524 
1508	 53.3940910151919 
1509	 51.8408431867524 
1510	 47.9570472186748 
1511	 47.4141482517224 
1512	 44.648873842726 
1513	 45.171301116141 
1514	 50.2134147482227 
1515	 50.3839460289657 
1516	 48.5051596130727 
1517	 45.6629431494039 
1518	 40.3176927928744 
1519	 37.9586017846908 
1520	 37.6578324463524 
1521	 39.2324320647952 
1522	 40.1642952129512 
1523	 39.6201789011518 
1524	 41.9536105804514 
1525	 42.4217438460171 
1526	 42.2862917383149 
1527	 43.289679852988 
1528	 42.9999354690613 
1529	 43.2924996403057 
1530	 42.0178512044179 
1531	 40.1758736340861 
1532	 39.3842695578194 
1533	 38.5659866584654 
1534	 41.4055935156614 
1535	 43.5687059545603 
1536	 44.0115564776788 
1537	 46.5850392053408 
1538	 45.4950730116619 
1539	 45.2427553813615 
1540	 46.2959935589475 
1541	 44.1656056559213 
1542	 45.3216907066816 
1543	 47.5224823334949 
1544	 47.7718723982349 
1545	 47.880048277509 
1546	 46.8287861627531 
1547	 45.4222843577057 
1548	 44.5887918045457 
1549	 43.9091348658415 
1550	 44.2611126659323 
1551	 43.4501544789504 
1552	 40.5308490204268 
1553	 39.642173996826 
1554	 38.5188920303083 
1555	 38.525097659808 
1556	 41.5265176074223 
1557	 42.53751063499 
1558	 44.2017265217417 
1559	 45.0551651367459 
1560	 41.952191922653 
1561	 40.5303907793194 
1562	 40.4392772324038 
1563	 41.3678902809147 
1564	 44.2753963431396 
1565	 45.6490183991448 
1566	 44.1456453973751 
1567	 41.2693402384983 
1568	 37.8482943349693 
1569	 37.282401532376 
1570	 41.3359450766952 
1571	 41.5559123951037 
1572	 43.0927192029168 
1573	 46.6777665426457 
1574	 45.1834419060563 
1575	 47.4377574652966 
1576	 48.7944593487883 
1577	 47.1468323971419 
1578	 47.8900529827887 
1579	 48.1626765734676 
1580	 48.9826511182677 
1581	 48.4529225200408 
1582	 44.7206894444888 
1583	 40.778639396469 
1584	 40.920060005359 
1585	 41.3359164471966 
1586	 42.8732671788368 
1587	 47.4147168825658 
1588	 45.6606156510915 
1589	 43.2723805075873 
1590	 43.9688970020926 
1591	 42.8150165190283 
1592	 42.7965737696321 
1593	 44.3610997080782 
1594	 43.9838991881773 
1595	 40.8839410955065 
1596	 38.1228157532546 
1597	 37.9621992890232 
1598	 38.539719900707 
1599	 40.3466553733832 
1600	 42.9073811865124 
1601	 40.8927297539561 
1602	 38.2451121650325 
1603	 36.6747286108776 
1604	 35.9083882697069 
1605	 38.4363511568503 
1606	 36.8213971161011 
1607	 33.9822168867247 
1608	 32.9565498478797 
1609	 27.7204107646166 
1610	 28.080890669818 
1611	 32.3618805401605 
1612	 33.68627566243 
1613	 37.8679658707921 
1614	 38.8215597814713 
1615	 37.7165470494946 
1616	 37.0491260381336 
1617	 33.4059685184745 
1618	 31.8783014089806 
1619	 32.4503336875453 
1620	 32.7974496380947 
1621	 34.3019702172854 
1622	 34.7797933119329 
1623	 34.5489258010314 
1624	 34.2039369524216 
1625	 32.7122322953932 
1626	 33.3914340386532 
1627	 31.2788326781731 
1628	 28.6253198326115 
1629	 29.2653846152038 
1630	 29.843931006774 
1631	 30.7256706744785 
1632	 30.4270974058244 
1633	 31.6665579255341 
1634	 33.6652995929821 
1635	 33.890107490243 
1636	 33.8184367544124 
1637	 33.3340032350048 
1638	 30.526110989505 
1639	 29.0477759956832 
1640	 28.027407741874 
1641	 28.6478102294135 
1642	 31.2816414939798 
1643	 31.9504706526931 
1644	 33.1653543970448 
1645	 33.8817199867809 
1646	 33.867616395689 
1647	 32.1850037783754 
1648	 28.2829982961937 
1649	 27.4539313485064 
1650	 25.7881983008795 
1651	 25.4037177458831 
1652	 29.9136009225918 
1653	 30.3140327389441 
1654	 28.8954698131215 
1655	 27.0607866061207 
1656	 22.8903284784023 
1657	 20.4380077020972 
1658	 16.9997050952337 
1659	 15.7386059845339 
1660	 17.4781846294397 
1661	 16.6370800545399 
1662	 14.9710647184715 
1663	 15.0930388877506 
1664	 14.9884738166584 
1665	 14.0397321006115 
1666	 15.0522155046039 
1667	 13.9716217414711 
1668	 10.3505240564897 
1669	 8.08736893733673 
1670	 5.40324499939223 
1671	 4.60494228426822 
1672	 4.6425445851558 
1673	 4.4776258182679 
1674	 5.75843899192798 
1675	 6.64248708231007 
1676	 6.44493046724925 
1677	 7.48315596305438 
1678	 10.2287748128377 
1679	 11.191908337254 
1680	 12.2285063156906 
1681	 11.119380154197 
1682	 8.39450765834475 
1683	 4.69065396060067 
1684	 1.27291731427025 
1685	 0.29449642932295 
1686	 2.71728343814909 
1687	 7.16243573521165 
1688	 9.24805412622669 
1689	 11.3102980740304 
1690	 10.7198339722094 
1691	 4.25101713308463 
1692	 2.84231262709122 
1693	 3.17881973356634 
1694	 2.84810529198153 
1695	 6.23614842285012 
1696	 7.98357965111406 
1697	 7.35909431764614 
1698	 7.39203265145091 
1699	 7.89028097893592 
1700	 8.60107331950825 
1701	 9.63335249124521 
1702	 9.48624332493523 
1703	 9.77782605962197 
1704	 8.71484448587819 
1705	 3.88036084132087 
1706	 3.38408367381058 
1707	 5.54046544284179 
1708	 5.90300702365237 
1709	 8.30698047179923 
1710	 8.57462026107186 
1711	 5.86219166110141 
1712	 5.04111505069826 
1713	 4.77922139966214 
1714	 4.66198449458518 
1715	 4.74343432740773 
1716	 5.24475635750099 
1717	 7.16440730463302 
1718	 6.21790266943324 
1719	 3.73326291534917 
1720	 2.83418514084024 
1721	 1.12063984984951 
1722	-0.495402151456096 
1723	-0.805941928817079 
1724	-2.22322750002296 
1725	-6.63543316042102 
1726	-1.62650392027567 
1727	 3.79647824531627 
1728	 6.74281525133487 
1729	 9.69576896864921 
1730	 8.48113304717506 
1731	 3.64217543684988 
1732	 3.46593056446975 
1733	 3.25364703431595 
1734	 2.51893670231815 
1735	 3.49081736273264 
1736	 7.24380249785977 
1737	 8.31057311274694 
1738	 7.78843899739593 
1739	 9.26100840423888 
1740	 10.4957255411656 
1741	 11.3528767920043 
1742	 14.1758318069943 
1743	 15.4527938785725 
1744	 15.4175231037415 
1745	 14.7116915156348 
1746	 13.2112052993234 
1747	 11.9320480542987 
1748	 9.63197786350238 
1749	 7.75112828589846 
1750	 6.49506718973196 
1751	 5.81956015804357 
1752	 4.8807740627556 
1753	 3.71030690205486 
1754	 2.80606366852728 
1755	 3.75738475245744 
1756	 6.94324390390434 
1757	 5.44817514803087 
1758	-6.33216334024208 
1759	-12.3561914111704 
1760	-20.1758094889951 
1761	-33.379886230321 
1762	-14.6827685555417 
1763	-5.40238779719702 
1764	 1.87115773363144 
1765	 21.5279253239851 
1766	 28.5396717264891 
1767	 24.5608004545022 
1768	 18.1727906801699 
1769	 2.69745394144777 
1770	 0.423405494492682 
1771	-10.2834411852276 
1772	-21.6534308956509 
1773	-20.1748144667868 
1774	-0.478522013746634 
1775	-1.52889510033588 
1776	-10.0958149732201 
1777	-9.89022406286635 
1778	-17.6558646245627 
1779	-8.79845897302447 
1780	-5.72596750162948E-02 
1781	 7.44379765263128 
1782	 18.8181685201688 
1783	 16.577024419675 
1784	 14.063072125845 
1785	 8.11109960246122 
1786	 13.4210273014594 
1787	 7.72934780887105 
1788	-11.4755301117252 
1789	-11.6032971727934 
1790	-9.31619442214321 
1791	-12.9865794709635 
1792	-13.06045769717 
1793	-14.4204625556243 
1794	-8.81441067731249 
1795	-1.65499168708828 
1796	 0.263845015648348 
1797	 3.60054706870179 
1798	 16.7620983123235 
1799	 8.08356259079425 
1800	-2.27369747191109 
1801	 3.21764037263617 
1802	 5.56315224296993 
1803	 3.99731872043364 
1804	-0.205042339111276 
1805	-4.1133675476459 
1806	-8.80053624568757 
1807	-21.5093718864193 
1808	-23.7109795855451 
1809	-11.7697943357502 
1810	-6.93643886036589 
1811	 5.82519961635609 
1812	 9.73631562566871 
1813	 4.82287457660273 
1814	 5.16377584804416 
1815	 9.15523588007035 
1816	 8.06034247096634 
1817	 14.3501661193327 
1818	-0.894048926904018 
1819	-15.2476284961764 
1820	-29.158976018624 
1821	-27.9388934642922 
1822	-16.7181835365331 
1823	-7.38861357597711 
1824	 23.1516606023234 
1825	 30.1962850771536 
1826	 17.9650042230016 
1827	 16.1996546031287 
1828	 12.0883443361179 
1829	 3.51460758232111 
1830	 3.79182168680498 
1831	 17.4122376783986 
1832	 16.2624622030024 
1833	 9.4720074409765 
1834	 5.01495205195036 
1835	-12.2355887653619 
1836	-13.6866369100492 
1837	 0.656918776953866 
1838	 5.29032636818684 
1839	 14.4782653855335 
1840	 20.365206260115 
1841	 21.632777041925 
1842	 10.9183404137434 
1843	 10.8204018497393 
1844	 14.5106648770554 
1845	 15.5924018499059 
1846	 18.7737325901227 
1847	 19.9655899937265 
1848	 16.1709053815108 
1849	 19.4764656456964 
1850	 15.4191396433217 
1851	 19.291901927055 
1852	 21.2427216312613 
1853	 20.7627076082628 
1854	 19.5080666184089 
1855	 18.8126488593124 
1856	 18.367940308597 
1857	 6.87089703094337 
1858	 24.3230286672601 
1859	 34.4381555130027 
1860	 30.3582506364809 
1861	 28.6393290969812 
1862	 10.1806618830463 
1863	 4.79822766702771 
1864	 5.5219898933373 
1865	 1.98526654027459 
1866	-0.28284120135752 
1867	 2.08065163994342 
1868	 0.853973714653803 
1869	 3.57002093062566 
1870	 20.0265792974491 
1871	 23.6734290226838 
1872	 23.5499720178304 
1873	 14.3827528449953 
1874	 0.494006334070977 
1875	-2.00625652686664 
1876	-4.0038563700017 
1877	-3.99576527277609 
1878	 2.70885094623503 
1879	 8.66608646852697 
1880	 10.389891987787 
1881	 8.11915961076836 
1882	 6.46452603307901 
1883	 6.93762922593324 
1884	 3.21459036533486 
1885	 15.2839422276153 
1886	 27.1400781856494 
1887	 32.3443078260343 
1888	 36.8659942740347 
1889	 41.59833260257 
1890	 34.197512185236 
1891	 25.3836464898664 
1892	 15.5234778634121 
1893	 14.0008455405821 
1894	 12.4003868301724 
1895	 7.94932374130939 
1896	 9.30370687239345 
1897	 5.19590934508757 
1898	-5.33926252434225 
1899	-9.18172057793234 
1900	-15.1298972397093 
1901	-14.2038376193443 
1902	-0.975394231476512 
1903	 0.111328654230271 
1904	 13.7991711630165 
1905	 19.7553983758583 
1906	 13.9990127550709 
1907	 22.5203193093649 
1908	 24.9696833377735 
1909	 23.6133530332085 
1910	 23.7144556139414 
1911	 23.5505800321766 
1912	 21.8992652681592 
1913	 17.5512854819347 
1914	 16.7052479312294 
1915	 17.8918171637404 
1916	 23.374040514 
1917	 29.0698852013956 
1918	 31.6567572542715 
1919	 27.184764309449 
1920	 11.0712033650027 
1921	 5.24366771854801 
1922	-4.16377429239279 
1923	-5.51170989796021 
1924	 8.54325243644562 
1925	 12.6710155910446 
1926	 17.3262667224642 
1927	 11.3328589583492 
1928	 13.0489072492029 
1929	 11.4645870454322 
1930	 11.5694987766577 
1931	 16.9755600228456 
1932	 19.3961779527055 
1933	 16.4762657285862 
1934	 17.0720189683344 
1935	 19.7902163736435 
1936	 23.438883197885 
1937	 32.0841026273215 
1938	 35.1286044827866 
1939	 38.395651044589 
1940	 35.1070705347631 
1941	 35.361670793176 
1942	 32.7532211419369 
1943	 30.6549536479904 
1944	 29.903277866484 
1945	 29.9163078378941 
1946	 26.1279446743061 
1947	 25.6919546203601 
1948	 34.6943797060138 
1949	 33.6591082437314 
1950	 27.1051649835177 
1951	 22.1513442935038 
1952	 10.1637136284744 
1953	 0.393925095209241 
1954	-1.40741404246394 
1955	 1.93603082384287 
1956	 4.95988724181691 
1957	 15.8264716856483 
1958	 20.1854017902483 
1959	 28.8974351785455 
1960	 24.8152208777136 
1961	 3.67526604944749 
1962	-1.79758193166367 
1963	-7.05152535716857 
1964	-12.301530235755 
1965	-9.35991736780068 
1966	-2.43615644889003 
1967	-0.760479649842018 
1968	-9.07790122208252 
1969	-4.03879444593808 
1970	 13.6798748501959 
1971	 17.8669962264244 
1972	 22.2976672691451 
1973	 22.0163218195213 
1974	 7.63255729934983 
1975	 3.54682241257222 
1976	 5.7191828989909 
1977	 3.78135444315049 
1978	 3.89879791273741 
1979	 0.772884211204857 
1980	 0.615662317711051 
1981	-3.06474380879853 
1982	-0.888050713484354 
1983	 7.01787371184454 
1984	 13.1576583825712 
1985	 23.587689332451 
1986	 28.418637362803 
1987	 32.928259466712 
1988	 32.7124792469777 
1989	 23.4204316325355 
1990	 18.4070221197438 
1991	 12.5989276635358 
1992	 8.62990446403613 
1993	 2.12923972071787 
1994	 6.20295757028551 
1995	 8.09740257635595 
1996	 13.0410764355823 
1997	 15.1007352776326 
1998	 18.0108173755523 
1999	 18.6725577178009 
2000	 18.6163492232138 
2001	 13.6206980384948 
2002	 2.27932890269432 
2003	-0.478338864263754 
2004	 0.193879006891942 
2005	-5.62951922780502 
2006	-6.51792408774894 
2007	-8.94691504316765 
2008	-14.5144046911308 
2009	-20.3706648652063 
2010	-23.8000175623236 
2011	-25.5098020696577 
2012	-18.7284341539282 
2013	-5.42136289070817 
2014	 1.95317397837331 
2015	 18.6930690837659 
2016	 22.5722483098737 
2017	 10.1682059413838 
2018	 7.4794087286994 
2019	 1.14976490487976 
2020	 8.79600025008024 
2021	 17.4079836865275 
2022	 17.6295863065674 
2023	 21.5698419037053 
2024	 13.4302092383129 
2025	 7.67517051688361 
2026	-2.78865251893983 
2027	-5.59661666206403 
2028	-8.18335222842088 
2029	-6.73774937277163 
2030	 4.36015351479395 
2031	 6.32517003343477 
2032	 3.02458660317169 
2033	 6.37780917820928 
2034	 8.46523721208583 
2035	 2.98874230645513 
2036	 5.28416432329365 
2037	 4.43908766119767 
2038	-0.512199372816741 
2039	 2.9149946498388 
2040	 10.5524073469203 
2041	 16.5941893070901 
2042	 20.6881002327164 
2043	 24.8231721278639 
2044	 27.1552659132779 
2045	 28.6733890665133 
2046	 27.5187358792318 
2047	 24.4329119372477 
2048	 22.3766887638567 
2049	 19.0340593745133 
2050	 9.79952321000697 
2051	 8.78527185958898 
2052	 11.4058312159828 
2053	 3.36154807221196 
2054	-0.551746126709282 
2055	-3.97736934099746 
2056	-18.5812216811208 
2057	-19.5474359507168 
2058	-15.5654906782549 
2059	-7.21563597730917 
2060	 14.1056276746672 
2061	 23.5205728038066 
2062	 39.2995886629032 
2063	 42.0992582025747 
2064	 30.3690016543742 
2065	 20.4059321926494 
2066	 18.5199425895947 
2067	 5.59085188656111 
2068	 4.04605822078884 
2069	-1.40753099997495 
2070	-15.1460337510156 
2071	-22.2088242813585 
2072	-21.5219749986835 
2073	-20.9762657464596 
2074	-23.6033127808309 
2075	-17.9740001235561 
2076	-16.8719426569906 
2077	-26.0760328040827 
2078	-25.7786345368721 
2079	-19.4359593717053 
2080	-17.1114067379942 
2081	-19.2175802078363 
2082	-3.53403781246981 
2083	 8.10056367097915 
2084	 14.5023223413905 
2085	 20.7807902258127 
2086	 22.4970497866713 
2087	 10.0646790701047 
2088	-3.08741419129314 
2089	-12.6638927142423 
2090	-27.8226171511172 
2091	-32.7860878621856 
2092	-25.3241358744676 
2093	-24.4725545599872 
2094	-21.689600864055 
2095	-21.5353669485747 
2096	-32.1202952255722 
2097	-33.7020698095664 
2098	-29.853141763535 
2099	-27.4497435086627 
2100	-22.1769685681659 
2101	-7.245173957378 
2102	-4.75688985122005 
2103	 10.435695353896 
2104	 21.6250085814215 
2105	 18.2222923690772 
2106	 18.0599418626961 
2107	 5.0069264402772 
2108	-6.72971283656587 
2109	-6.8022457579359 
2110	 2.32626227280592 
2111	 10.764694219397 
2112	 7.60695552020283 
2113	 7.39030066312704 
2114	 0.890785031158496 
2115	-21.6949939529186 
2116	-26.2761701315827 
2117	-25.4568164848056 
2118	-26.7928534074382 
2119	-20.9744122492633 
2120	-13.2769264758499 
2121	-16.814527559428 
2122	-17.0077603736881 
2123	-14.9827573639375 
2124	-17.1153515809793 
2125	-23.4536289828626 
2126	-36.0676648857602 
2127	-42.1733506421834 
2128	-45.194435420536 
2129	-49.9324365621356 
2130	-46.5120480718755 
2131	-44.6385898011471 
2132	-43.9121899362537 
2133	-35.98790250696 
2134	-23.4812262542332 
2135	-13.3572851414974 
2136	-3.9525232409428 
2137	 9.08506946366315 
2138	 28.5779376718662 
2139	 34.6925739244958 
2140	 41.3714157705617 
2141	 36.4541605378875 
2142	 15.6413327503513 
2143	 1.86671103205137 
2144	-8.11236744539333 
2145	-11.0309214527658 
2146	-8.24902731123909 
2147	-7.87716294757849 
2148	-1.06911777119351 
2149	 2.25252460377831 
2150	 5.03410981802726 
2151	 7.44838403777444 
2152	 1.99544067298608 
2153	-3.98538274108605 
2154	-18.4478705005874 
2155	-29.4436790699019 
2156	-35.474590292499 
2157	-42.2576327318769 
2158	-43.0200062620878 
2159	-35.7523395321769 
2160	-31.6178453744386 
2161	-24.5139460794285 
2162	-18.5110391878859 
2163	-12.879965553354 
2164	-2.09897668311873 
2165	 0.70348371380043 
2166	-7.47188106062606 
2167	-17.2176909761295 
2168	-32.0819319233503 
2169	-46.9620525221551 
2170	-50.5026782986826 
2171	-50.7504096152939 
2172	-41.3772307211931 
2173	-24.2587426186979 
2174	-7.16059783060692 
2175	 9.57517905718414 
2176	 15.1941282257701 
2177	 8.35617019306312 
2178	-0.435178464470703 
2179	-10.0700325719983 
2180	-19.6240701692151 
2181	-8.81805142489011 
2182	 0.1659087804457 
2183	 6.35905150260554 
2184	 22.0648788998149 
2185	 25.9166932419077 
2186	 15.995021689916 
2187	 15.3772707723205 
2188	 13.5226656842122 
2189	 15.3620015865559 
2190	 21.4371184522808 
2191	 22.2704137354398 
2192	 20.3173363832597 
2193	 13.8800754362206 
2194	 12.7930329625348 
2195	 21.0261314149418 
2196	 33.8818694125667 
2197	 36.4516707620827 
2198	 32.9595402293244 
2199	 29.4412149559243 
2200	 12.1696526283845 
2201	 2.554021126348 
2202	-4.92624736111644 
2203	-27.4319442147052 
2204	-35.8926957167679 
2205	-37.2120424694136 
2206	-30.0259595491019 
2207	-6.75821909772228 
2208	 7.01791830753132 
2209	 16.3366469884386 
2210	 22.2307316614535 
2211	 13.1813127325593 
2212	 11.0176179359119 
2213	 19.9240164439514 
2214	 16.9537905331041 
2215	 5.79966575560995 
2216	 1.10214365815601 
2217	-13.3435024613134 
2218	-21.9410201897639 
2219	-25.2992061022262 
2220	-23.6795526703681 
2221	-20.1102094882322 
2222	-7.7358984159671 
2223	 5.00197320237771 
2224	 17.75846552415 
2225	 24.922963302554 
2226	 23.8792081913127 
2227	 17.479587503008 
2228	 9.92303825171586 
2229	-10.8893898740049 
2230	-29.9633483613021 
2231	-36.6809555185018 
2232	-44.5662231762832 
2233	-27.6087881000372 
2234	-2.63844701122333 
2235	 18.2168540826933 
2236	 38.1228771817562 
2237	 37.9566813136627 
2238	 31.1361845580783 
2239	 19.0465045970884 
2240	 6.17040467711102 
2241	-2.59552154042259 
2242	-9.84877330476739 
2243	-11.9931846136306 
2244	-10.9148159723727 
2245	-9.43247926090847 
2246	 4.5790489210541 
2247	 3.56373944140055 
2248	-5.6901790901335 
2249	-13.9306331009595 
2250	-39.3459129050767 
2251	-47.1531983874924 
2252	-44.4177576475854 
2253	-40.3522130881118 
2254	-20.9289277141095 
2255	-8.20742795127958 
2256	 5.04715809191943 
2257	 6.42464875600769 
2258	 9.84732030053342 
2259	 14.4124987964416 
2260	 15.5182557824766 
2261	 25.4124456483839 
2262	 38.2591690928333 
2263	 26.5756211844473 
2264	 13.5809868004519 
2265	 0.205046075866402 
2266	-12.3230659736759 
2267	-2.72018237377901 
2268	 9.69760395804293 
2269	 13.8394662072281 
2270	 15.3984720344384 
2271	 8.61611957608539 
2272	-2.95539891807987 
2273	-2.4443394463246 
2274	-5.47471574545603E-02 
2275	-3.26673774625859 
2276	-7.63696844206576 
2277	-8.66795299450567 
2278	-9.64699723379086 
2279	-13.065023163096 
2280	-8.02722747128077 
2281	-10.5479397723633 
2282	-18.0068981478635 
2283	-17.2332047488576 
2284	-22.8827728948055 
2285	-24.4877574208114 
2286	-26.4585395365957 
2287	-31.1556734613654 
2288	-27.5896202133611 
2289	-19.0257451790253 
2290	-16.6503049710052 
2291	-12.1678332608491 
2292	-6.36713345108541 
2293	-2.42959075896602 
2294	 6.09647096522991 
2295	 27.8987187614202 
2296	 31.3956902838859 
2297	 20.8199671100429 
2298	 14.8231237349386 
2299	-1.88560303766851 
2300	-6.92849914012023 
2301	-0.872415606135484 
2302	 2.68444573835726 
2303	 8.50976194567071 
2304	 13.3277185578325 
2305	 21.0972544317901 
2306	 19.5289624726706 
2307	 10.3558393830105 
2308	 6.5133364848155 
2309	-2.45102050909919 
2310	-6.11969196939927 
2311	 9.38313165378276 
2312	 17.281007097511 
2313	 26.1006374242287 
2314	 36.9250330024427 
2315	 18.5029181069842 
2316	 16.9220841068419 
2317	 9.28047933719196 
2318	-5.83565495426183 
2319	 3.61516867222678 
2320	-2.63764078235937 
2321	-7.1261785011728 
2322	-10.9364018035105 
2323	-29.7916445077118 
2324	-33.1796854706475 
2325	-24.6993060982822 
2326	-16.3630593741067 
2327	 11.278952895237 
2328	 29.837397664935 
2329	 27.474045174937 
2330	 31.8116571218187 
2331	 18.5136130311236 
2332	 5.9936279942552 
2333	 7.26066954696334 
2334	-3.10527144426575 
2335	-3.79361570531663 
2336	-5.92886683758098 
2337	-17.975139668941 
2338	-15.9499196184866 
2339	-14.8608870259858 
2340	-17.1989340745773 
2341	-8.22698311545595 
2342	 1.31749252198746 
2343	 4.97998666531928 
2344	 7.20614615942564 
2345	-7.53336720034212 
2346	-29.5091654282635 
2347	-38.4126870780731 
2348	-39.5114074427192 
2349	-27.4159601819921 
2350	-7.39590493850408 
2351	 2.71212612351974 
2352	 0.263852217864284 
2353	-5.48457040259941 
2354	-9.27915930456571 
2355	-8.69892826954828 
2356	-5.07335475648759 
2357	-1.98928355959946 
2358	-5.97904033411901 
2359	-18.4378210698444 
2360	-29.6357613673945 
2361	-32.8261809144781 
2362	-27.3477386512481 
2363	-18.8028851234795 
2364	-9.05406518219534 
2365	 1.54528793393082 
2366	 5.20046791376531 
2367	 9.14809747434257 
2368	 8.31956761808892 
2369	-2.94903022813578 
2370	-12.2936779233775 
2371	-23.9878936421704 
2372	-23.8952145300154 
2373	-19.7673614876044 
2374	-22.4863882772675 
2375	-17.7370816012913 
2376	-13.8045366308489 
2377	-6.27910136161653 
2378	 8.03540842932063 
2379	 18.3336294715167 
2380	 19.511698082961 
2381	 20.3249275460742 
2382	 26.6209299950025 
2383	 18.7275891983185 
2384	 7.4728533362576 
2385	-0.332188841953924 
2386	-20.240299762583 
2387	-34.3400390911375 
2388	-37.7051407707777 
2389	-45.9660506701173 
2390	-50.534299199901 
2391	-42.3862158030222 
2392	-38.5801305764596 
2393	-32.0436831619225 
2394	-26.8675327537954 
2395	-25.0834261197696 
2396	-13.0587258646154 
2397	-6.22429230571886 
2398	 0.67476505355007 
2399	-0.445134488941931 
2400	-11.0428054873344 
2401	-21.1240197837826 
2402	-35.0788255996628 
2403	-38.9221344825761 
2404	-38.0262343564304 
2405	-34.4996592395543 
2406	-21.6773302854018 
2407	-8.78128405033068 
2408	-0.685196670408985 
2409	 11.0593401406519 
2410	 18.6985990907163 
2411	 13.8533972483884 
2412	 14.0120905608266 
2413	 7.51154414323313 
2414	 2.00546693576347 
2415	 5.07346218448792 
2416	 6.37726714824002 
2417	 20.2870288085014 
2418	 30.7006191975842 
2419	 38.9474563136968 
2420	 51.451048856681 
2421	 40.6785463309707 
2422	 19.7965059214163 
2423	 6.59388881225237 
2424	-8.44061918308405 
2425	-8.60881225772269 
2426	 6.78584357483856 
2427	 10.0248330058307 
2428	 7.71631222003265 
2429	-1.8313880038832 
2430	-25.56314500521 
2431	-34.5560670498759 
2432	-40.6681060782858 
2433	-38.5051935039391 
2434	-18.234870580662 
2435	-13.9409339326381 
2436	-11.4880269008419 
2437	-13.2381942741588 
2438	-22.5920493663983 
2439	-24.8466927508357 
2440	-24.5789422274778 
2441	-23.2939628542127 
2442	-29.7487726390631 
2443	-28.2388159501181 
2444	-21.0757303684536 
2445	-16.7392230860884 
2446	-11.3785611185956 
2447	-14.2925933679193 
2448	-21.8724448595938 
2449	-40.3436562210448 
2450	-47.250306725747 
2451	-44.2689116326723 
2452	-47.8734689787124 
2453	-35.1253038422469 
2454	-24.9254210803749 
2455	-23.6423350705715 
2456	-12.105571879481 
2457	-1.48247881443086 
2458	 9.8747468625943 
2459	 27.2545501662747 
2460	 29.1751608402817 
2461	 24.3720278408439 
2462	 18.7131103382312 
2463	 2.05876188204211 
2464	-9.1000900319466 
2465	-13.2090723469855 
2466	-6.41980589273505 
2467	 21.436765339824 
2468	 33.4191765029981 
2469	 32.730358042008 
2470	 14.7006078663385 
2471	-3.36223670196956 
2472	-10.7489793376063 
2473	-13.1684874293409 
2474	-3.17518722397886 
2475	 6.70657873767153 
2476	 11.8861767759136 
2477	 23.4251502306253 
2478	 21.6665950353567 
2479	 19.822593268422 
2480	 20.877868691088 
2481	 13.0427138190863 
2482	 16.418978170504 
2483	 16.0756088229667 
2484	 5.3113812520271 
2485	-2.32864365821612 
2486	-7.288331808263 
2487	-3.0720966327344 
2488	-3.9560602653128 
2489	-10.7123358416596 
2490	-13.7454518480927 
2491	-31.7240103427231 
2492	-39.6720726916111 
2493	-27.9611256235622 
2494	-20.9948272109461 
2495	-12.6861593618472 
2496	 0.396396018259753 
2497	 5.0001692859123 
2498	 10.5212616001764 
2499	 18.0403118176654 
2500	 16.1436171754241 
