Wavelength	3mm_GrayPLA00000.asd
350	 0.829618887331836 
351	 0.327026583666381 
352	-0.434154506661642 
353	-1.04462136716459 
354	 0.849444105797833 
355	 1.56682309928003 
356	-0.934710017353193 
357	-0.863206078698874 
358	-0.970536713001056 
359	-1.32532271367115 
360	 8.91684044780984E-02 
361	-0.232272950489576 
362	-0.903307957902395 
363	-0.121430202722964 
364	 0.657460175980459 
365	 0.347177935017473 
366	-0.815068268770187 
367	-0.969257818297729 
368	-0.685938720879334 
369	 0.197461109595373 
370	 1.67351065513852 
371	 1.69698188466439 
372	 0.671697831872021 
373	-0.703371068564857 
374	-1.79729651078355 
375	-0.836143370417491 
376	 1.02663732025744 
377	 1.19203054979829 
378	 0.546441139592095 
379	 0.845307996087289 
380	 2.55581869656973 
381	 1.96092998064601 
382	 1.54037032962926 
383	 1.80554926040897 
384	 1.6187622728549 
385	 0.526597259294671 
386	-0.690760532790074 
387	-1.01631111971753 
388	-0.113619661002634 
389	 1.30007631382867 
390	 1.95935047006342 
391	-0.567297210320194 
392	-0.948576237638561 
393	 0.436578775548667 
394	 0.913019149905818 
395	 0.652981805619008 
396	 0.672486728139187 
397	 1.4461023217141 
398	 1.94117981934655 
399	 0.913830936528528 
400	-0.959327166616631 
401	-1.44072923048626 
402	-0.202591481464691 
403	 1.36639434311268 
404	 1.71751376288922 
405	 0.989306194375387 
406	-0.55271486874046 
407	-1.7481114171184 
408	 0.229697501441529 
409	 1.24407438054444 
410	 0.924457348473606 
411	 0.502909894497835 
412	 0.420291257836931 
413	 0.124581985953916 
414	-0.511949434498368 
415	 0.168699011412066 
416	 2.81962708258634E-02 
417	-0.669296255660084 
418	 0.440805839060412 
419	-0.159316418926095 
420	-1.00655832409157 
421	 4.24672771326377E-02 
422	 0.874901400728108 
423	 0.72477612855045 
424	-1.35102582390671E-03 
425	 1.37863708391602 
426	 1.84262688908255 
427	 0.899470734874562 
428	-0.535670769851467 
429	-0.571512197132989 
430	-6.98791776411015E-02 
431	 0.068522316452471 
432	 1.34276695342996 
433	 0.703165363544447 
434	-1.57637194704923 
435	-0.773659461833618 
436	-0.531002403876397 
437	-0.94281861234311 
438	-0.860123092980335 
439	 0.203727172211213 
440	 0.837120904954651 
441	 0.158286166951306 
442	-0.915501035001935 
443	-0.827263552436856 
444	-3.03973260329405E-02 
445	-0.865216430382774 
446	 0.103593011772682 
447	 1.11941357829876 
448	-0.253199588850988 
449	-0.658263680520058 
450	-0.155375955042787 
451	 0.553169650692774 
452	-0.119145763712193 
453	-0.452988111692501 
454	-0.18894378550307 
455	-4.20276962243252E-03 
456	-0.300680024210382 
457	-0.518086981926446 
458	-0.239368885290246 
459	-1.21472431618155 
460	-1.12572268730171 
461	 0.337201437310062 
462	-0.60740673289372 
463	-0.899707273097155 
464	-0.537200237138153 
465	-0.959883222522385 
466	-1.51803973085249 
467	-0.825462944153696 
468	 1.44543330133537 
469	 0.694377001483433 
470	 0.4487907038684 
471	 1.40869489621164 
472	-0.560905161599619 
473	-1.69975836521282 
474	-1.00346740438306 
475	 1.12097780270265 
476	 1.79257348908132 
477	 1.22783860195953 
478	 0.23455580328957 
479	-0.759623218768442 
480	-1.33002004873067 
481	-1.04845559044731 
482	 0.775217856941933 
483	 1.08465115206799 
484	 0.51791692669301 
485	 1.07901741903064 
486	-0.508560277855201 
487	-1.88810765539926 
488	-0.978712605519242 
489	 0.699033042957429 
490	 1.06216032710205 
491	-0.386117154456871 
492	-2.38106360520937 
493	-1.38176244733396 
494	 0.125723897927106 
495	-2.22583193593078 
496	-0.186901286501528 
497	 0.882623921012107 
498	-2.68417787280795 
499	-2.10483109692217 
500	 0.17872565701379 
501	 1.66848932752808 
502	-0.622001778883295 
503	-0.888871036052479 
504	-5.20354855584182E-02 
505	-1.50708705542149 
506	-2.34381740168739 
507	-2.6332268928702 
508	-2.53246759030197 
509	-0.638481335410602 
510	 0.707540844516677 
511	 0.642376095041686 
512	 0.178348889685144 
513	-0.582075161610513 
514	-1.58311140159875 
515	-2.65745700553266 
516	-1.56327107907121 
517	 0.197985580491555 
518	 0.900746835052386 
519	 0.433033236629023 
520	-0.590663875910034 
521	-1.4445908588092 
522	-1.0764837688561 
523	-1.23012120678489 
524	-1.26437317894334 
525	 0.301770139854633 
526	-0.26654550416504 
527	-1.19044529907811 
528	-0.679613777057334 
529	-1.22659171806889 
530	-1.36855298201268 
531	-0.773458341784978 
532	-1.07537081582483 
533	-1.51150864198711 
534	-1.93291400288296 
535	-2.36521431772416 
536	-1.67145013232644 
537	-0.688786639247333 
538	-0.439749536890062 
539	-0.855951004411581 
540	-0.688235065402304 
541	 0.171470663004727 
542	-0.281910671371174 
543	-1.79485444063136 
544	-3.05666077703724 
545	-1.95315398641291 
546	 0.119375473593705 
547	 1.08597847976127 
548	-0.33769821419533 
549	-0.2864928481814 
550	-0.268860082168792 
551	-1.06371369556578 
552	-1.17076290622171 
553	-1.44708229172686 
554	-1.4028175783039 
555	 0.410819312752178 
556	 0.950925049185081 
557	 0.066762296914352 
558	-1.26696212072744 
559	-0.76626070669898 
560	-0.721203833516824 
561	-2.1986979694242 
562	-2.35182265751057 
563	-1.22299466863606 
564	 0.204995075376171 
565	-0.150463041571784 
566	-0.906080106588722 
567	-1.3844982694404 
568	-1.23709953507815 
569	-1.57235629154456 
570	-1.26968250950963 
571	-9.04499599789017E-02 
572	-1.57145481293285 
573	-1.39978819495541 
574	 0.570026930832215 
575	-0.595985051626397 
576	-1.46440717362607 
577	-1.19607415291948 
578	-0.055957957612885 
579	-0.064231238235363 
580	-0.915652364119533 
581	-1.71805122021853 
582	-0.983473116285479 
583	-0.575079736300575 
584	-0.991638395750745 
585	-0.525764223226193 
586	-0.433952334512459 
587	-0.69662318067664 
588	-0.754004298290519 
589	-1.92383391852923 
590	-2.60451960681036 
591	-1.35034640039264 
592	-0.19528182559355 
593	-0.088485361882789 
594	-0.782155371774235 
595	 0.415035141063835 
596	 0.173901003555229 
597	-1.38135500489014 
598	-1.86309726221817 
599	-2.21821432092196 
600	-1.82044920952122 
601	-0.206769360559931 
602	-1.79801650635825E-02 
603	-0.467741974709059 
604	-0.737732898049245 
605	-0.688359771522424 
606	-0.271574522889102 
607	 0.139358046823925 
608	-0.270865531753149 
609	-1.13255550603359 
610	-1.8625503509702 
611	-1.92559834811932 
612	-2.23529590017182 
613	-2.77756947283508 
614	-3.10892873148918 
615	-1.7010436064352 
616	-0.526816579998269 
617	-0.142738006143511 
618	 0.619714284415982 
619	 0.60100072058166 
620	-0.117386568543484 
621	-0.873086698467116 
622	-0.866435707165271 
623	-0.155333603900688 
624	 0.72916435440174 
625	 0.213461180334792 
626	-0.561864552604314 
627	-1.16573905822096 
628	-2.63889574282204 
629	-2.45671060300267 
630	-0.771255206823023 
631	 0.678580329007046 
632	 0.122918708788919 
633	-1.4591083937269 
634	-2.45876382320658 
635	-1.98520743216775 
636	-1.63482463561701 
637	-1.80617282478466 
638	 0.146636048875391 
639	 0.700532709591315 
640	-0.192362915567258 
641	-0.114039841981062 
642	-1.27992515074752 
643	-2.57466926051553 
644	-2.2723265152686 
645	-1.08810947829193 
646	 7.68510076086989E-03 
647	 0.360429948827007 
648	-1.94656184452115E-02 
649	-0.181138464922096 
650	 0.140468060113099 
651	 0.594181365993321 
652	 0.048303001786261 
653	-1.04828464999658 
654	-1.66898686127617 
655	-2.02243759127579 
656	-0.855830903285068 
657	 1.72627780879754 
658	 0.746333660918014 
659	 3.03816320054719E-02 
660	 0.438386988976559 
661	-1.07883993256456 
662	-1.08039908398335 
663	-0.199846217964691 
664	-0.675230510282831 
665	-0.812072110457179 
666	-0.648235818279435 
667	-0.563780618733637 
668	-1.26333410050739 
669	-1.12234189208129 
670	-5.89667089031918E-02 
671	-0.715236289704589 
672	-0.993379436008064 
673	-0.730253908739185 
674	-0.700776742032204 
675	-1.19576382745428 
676	-1.05805995690273 
677	 0.363572406080541 
678	-0.524563267938825 
679	-0.708777498447503 
680	 0.804237909837324 
681	 0.295724579814348 
682	 0.619561165815777 
683	 1.48864884055201 
684	 0.647452657365639 
685	 0.543559263884872 
686	 0.774382528010452 
687	 0.48315866641881 
688	 0.992925752980423 
689	 0.385540473714154 
690	-1.62728314493382 
691	-1.03284990039692 
692	 0.239657974839691 
693	 0.766576941927206 
694	-0.749922876739185 
695	-0.9880452937403 
696	-0.593424217559768 
697	-1.15767033260407 
698	-1.36524078368116 
699	-0.981642573151889 
700	-0.183733282126691 
701	 9.09847196881083E-03 
702	 0.862791920663198 
703	 1.85725932650208 
704	 0.615210754195333 
705	-0.654977993826722 
706	-1.15031482985158 
707	-0.562305457223317 
708	 1.44809544195879 
709	 1.84654226422463 
710	-0.472682135194235 
711	 0.13329481612343 
712	 1.0555646477004 
713	 1.08006571198173 
714	 0.399206877572111 
715	-0.802078067768177 
716	-1.20632141377343 
717	 0.471717396919816 
718	 4.12637020226911E-02 
719	-0.399745771935703 
720	 0.834870324974688 
721	 1.15425741766021 
722	 0.627208137037908 
723	-0.124749631130737 
724	 0.375963259514536 
725	-0.320602630446748 
726	-1.55203982524643 
727	-1.50863902054801 
728	-1.602829398951 
729	-0.759855805715818 
730	 1.26133701901679 
731	 0.525049422998451 
732	-0.120917303644762 
733	 0.283911376041114 
734	 0.197882226286491 
735	-0.115125661469364 
736	-0.393277732598457 
737	-0.371105965999397 
738	-0.817273652398975 
739	-1.09251263498408 
740	-0.620602331489585 
741	 0.271231544197621 
742	 0.861999463321988 
743	 0.707365155112331 
744	-0.432866049838873 
745	-0.767344537675027 
746	-0.397377577408969 
747	-0.337019801812055 
748	-1.45062031876505 
749	-2.07910307834112 
750	-1.19044376352369 
751	-1.44863476639752 
752	-0.874022478495309 
753	 0.561207914524023 
754	 0.254347687280371 
755	-0.564353830011901 
756	-0.988697708011419 
757	-0.346034668815783 
758	-0.694761134061161 
759	-0.299031217380131 
760	 1.55910068273675 
761	 0.286287779221461 
762	-0.390353287335196 
763	 0.277774020739956 
764	-0.559760093346606 
765	-0.508046336596902 
766	 0.368814353111775 
767	 0.952446765184467 
768	-0.925749387723202 
769	-1.97886322386311 
770	-0.269211390428761 
771	 0.482558809489427 
772	-0.711877448390706 
773	-2.3133972948737 
774	 0.101996518312579 
775	 1.08996745441219 
776	 2.12246147062227E-02 
777	-1.79254052992745 
778	-1.32078734720456 
779	-0.72315080389833 
780	-1.4595920847969 
781	-1.98605635382503 
782	-1.36944903786342 
783	-0.227463151900364 
784	-0.568247109766429 
785	-1.36817556477909 
786	-1.55357180387393 
787	-0.342744917659954 
788	 1.33343000162133 
789	 1.0198316897167 
790	-1.32342793382404 
791	-0.384032726226729 
792	-0.812618510040944 
793	-2.21315623755171 
794	-1.239604248714 
795	 0.159161540182998 
796	 0.553514808682242 
797	-0.575083675929384 
798	-0.148196585834426 
799	-6.91560243214836E-02 
800	-1.01510829160043 
801	-1.57895576940483 
802	-1.07729295615746 
803	-0.558998464988656 
804	-1.63404696138096 
805	-0.282629626012025 
806	 0.115389588714335 
807	-2.38441492428427 
808	-1.23445776950726 
809	-0.734766726339258 
810	-1.49197785876736 
811	-7.95358058625233E-02 
812	 1.04213415326601 
813	 0.807499694504266 
814	-0.941429374006538 
815	-1.13382314313125 
816	-0.979936846428986 
817	-1.17219795932598 
818	-0.17238367711869 
819	 1.01845759068769 
820	 1.08839275373363 
821	-1.37438009352885 
822	-1.39285501355344 
823	 0.141615857978832 
824	 1.12428947568935 
825	 0.624216037011722 
826	 9.48403454266465E-02 
827	-3.97850838380038E-02 
828	-0.981180150855016 
829	-1.98189804824675 
830	-2.09216051181588 
831	-0.536507220912805 
832	 0.574958758122648 
833	 1.53344601445052 
834	 1.96096564270016 
835	-1.81475255236481 
836	-3.61477226163836 
837	-2.38021917292847 
838	-1.14582672679869 
839	-0.171298629022884 
840	 0.372456487765397 
841	 0.398904765437035 
842	-0.702447771742794 
843	-0.855886738463944 
844	 0.200436482316567 
845	-0.209555818999931 
846	-0.845808743404105 
847	-0.675126290067389 
848	 0.863610341694872 
849	-0.429910370478764 
850	-1.58403458015575 
851	-0.713543278322545 
852	-1.13774802824179 
853	-0.897643154618943 
854	 3.37340690980783E-02 
855	 0.304173465544816 
856	-0.565477108461162 
857	-1.72815270288169 
858	-2.1764522873971 
859	-1.74978823923214 
860	-1.03867820556612 
861	-0.341028985134457 
862	 0.503422811206927 
863	-0.343327544347477 
864	-1.64604858085408 
865	-1.47909426006583 
866	-1.63867555516564 
867	-1.6577373303035 
868	-1.22805894934416 
869	-0.675664543187018 
870	-0.33843240880173 
871	-0.476881503862721 
872	-1.19667539767864 
873	-1.55728633045191 
874	-1.60523983667603 
875	-1.34920804996167 
876	 0.111056904555659 
877	 0.211573415376122 
878	-0.943076737418882 
879	-1.10278404835826 
880	-1.51965066660096 
881	-1.8269210944873 
882	-1.39858892106077 
883	 0.336731314151945 
884	 0.71537672920295 
885	-0.557039116109728 
886	-0.930780681180977 
887	-2.08593722315525 
888	-2.84478483257444 
889	-1.80354106105067 
890	-1.06042961089204 
891	-0.702304648903555 
892	-0.6035024046414 
893	-0.440273740290961 
894	-1.99724541118554 
895	-2.95740402113634 
896	-0.328332329900999 
897	 0.537733613533638 
898	 0.198975475047026 
899	-0.457995484589751 
900	-1.26075047718714 
901	-1.51293051766205 
902	-1.16455744156583 
903	-0.605173524333092 
904	-0.756325805349982 
905	-0.697814707704498 
906	-0.109374736184476 
907	-0.687040619390414 
908	-2.1435967721968 
909	-2.88811781981264 
910	-0.903469462251849 
911	-0.817751367718142 
912	-0.889219178494674 
913	 0.145680780325529 
914	-0.61901581591237 
915	-2.30810891480208 
916	-3.54083622716728 
917	-2.69963235241612 
918	-1.86874945613032 
919	-1.51086225281365 
920	-1.51828999014535 
921	-1.00322350400049 
922	-1.07970750880861 
923	-1.34138657782016 
924	-0.415461465777156 
925	-0.962176690091358 
926	-1.44405884777598 
927	-0.690295418702981 
928	-1.15484585092245 
929	-1.61404100186509 
930	-1.57824997373718 
931	-1.14063606273341 
932	-1.04833721191843 
933	-1.00810245813609 
934	-0.781642503326257 
935	-0.847403064053913 
936	-1.92338459179818 
937	-3.1440672800153 
938	-2.61155115260656 
939	-1.74847003281748 
940	-0.915721902761491 
941	-0.46427772806985 
942	-1.43492285907552 
943	-1.7826664888977 
944	-0.987151287265296 
945	 0.257201279532858 
946	-0.840216922900128 
947	-1.08170523923735 
948	 1.06486823397078 
949	 0.565424976883025 
950	 6.59521638481961E-02 
951	 5.05260641179696E-02 
952	-9.38843175928398E-02 
953	-0.635133935943463 
954	-0.985063647314112 
955	-0.653951176532905 
956	 0.642549928616217 
957	 0.779411791571161 
958	 1.37776974104821E-02 
959	-0.49942967195687 
960	-2.15681995133371 
961	-1.67654310865624 
962	 1.0458322045891 
963	 0.32734145073722 
964	-0.880615749806632 
965	-1.68159485733476 
966	 3.29257780279587 
967	 5.32740840286024 
968	 4.2893193502696 
969	 3.10721684388547 
970	 1.59394536500443 
971	-9.16352615868202E-02 
972	-5.584803756178 
973	-5.28070367552056 
974	-0.566990596322263 
975	 0.894830648921116 
976	 3.03119429751799 
977	 6.86750459975467 
978	 4.39192984122917 
979	 2.7133716463278 
980	 6.0243330866362 
981	 6.51692180375385 
982	 8.01572441881479 
983	 10.3263831727983 
984	 6.55684945467389 
985	 2.79592401908893 
986	 1.10424091314133 
987	-8.53704444788939E-02 
988	-1.58232984912184 
989	-1.96399377983497 
990	-1.53364516468474 
991	-1.43950750418568 
992	-0.856983011368942 
993	 1.6575254885631 
994	 3.23439488881834 
995	 1.92224562969901 
996	-7.74575702236134E-02 
997	 1.27870276785029 
998	 1.96165247406368 
999	 1.27727651220088 
1000	 2.6004956438601 
1001	 1.92646131776762 
1002	-0.82313205780405 
1003	-1.88687195085041 
1004	 1.1716541118922 
1005	 3.15903561845505 
1006	 6.19408970123373 
1007	 7.25507651873374 
1008	 9.04969623761007 
1009	 6.40611550783524 
1010	 3.16013293237619 
1011	 0.869666173714548 
1012	 1.18399836078893 
1013	 4.62091855127466 
1014	 4.84912420044709 
1015	 4.49540832672714 
1016	 4.99802541128246 
1017	 4.38403380250194 
1018	 6.43575804425774 
1019	 8.84323674035514 
1020	 7.59983448066031 
1021	 5.8340447372664 
1022	 6.77788263025839 
1023	 6.62702397073102 
1024	 6.48787067188374 
1025	 7.68111692375105 
1026	 10.5106008086428 
1027	 8.4364260853992 
1028	 7.4741601554556 
1029	 8.22518327181415 
1030	 3.73196120056357 
1031	 0.470618106344197 
1032	 2.18980766543071 
1033	 2.85809488948445 
1034	 2.54160861571283 
1035	 4.13080538484863 
1036	 2.80810612779475 
1037	 1.80268460920129 
1038	 4.86277590252188 
1039	 5.51377880156275 
1040	 5.02818011960121 
1041	 2.7016172092824 
1042	 1.83579071516473 
1043	-0.312583630969205 
1044	-0.158164312960331 
1045	 0.545083427669352 
1046	 0.326003580005491 
1047	-0.297959935779065 
1048	-2.1949817102337 
1049	-2.40884790739521 
1050	-3.20017285809711 
1051	-6.12748334393301 
1052	-6.64533769476941 
1053	-4.08064177523959 
1054	-1.50697907265197 
1055	 3.10414866995187 
1056	 8.91745837140827 
1057	 11.0140871676135 
1058	 9.1888909599915 
1059	 9.01983681069878 
1060	 7.52992683012048 
1061	 7.11710580629289 
1062	 7.56038666704457 
1063	 7.11832824191234 
1064	 8.19197425986184 
1065	 6.89324692194467 
1066	 2.22887169475173 
1067	 0.657289368398443 
1068	 1.15624945055862 
1069	 3.10938785735743 
1070	 4.69630879312468 
1071	 6.76869287366167 
1072	 9.19703465120401 
1073	 5.69928939406579 
1074	 5.37759844974683 
1075	 8.06296650611642 
1076	 8.63764612798434 
1077	 7.93610041817516 
1078	 8.17596004791152 
1079	 8.12934536527473 
1080	 7.16918032121467 
1081	 5.88406192010784 
1082	 5.27041072602607 
1083	 3.54531687818697 
1084	 3.62154155221834 
1085	 6.08461010025399 
1086	 7.23149081300283 
1087	 10.4806657671428 
1088	 12.8349695077505 
1089	 11.9490255698722 
1090	 11.1811611560704 
1091	 9.84084688002504 
1092	 5.84881467759724 
1093	 4.14285607431056 
1094	 3.98367023831255 
1095	 3.1173749008381 
1096	 1.76432213181438 
1097	 1.54820129935422 
1098	 2.01153833935097 
1099	 1.9981024146801 
1100	 2.05583122917794 
1101	 2.829108182768 
1102	 5.55313477506165 
1103	 5.33408414860477 
1104	 3.66698772656188 
1105	 2.06053067797678 
1106	 0.194127687141369 
1107	-1.42223766801008 
1108	 1.07380893011558 
1109	 4.21598361289024 
1110	 6.97426115670594 
1111	 11.718054295036 
1112	 12.5131406082742 
1113	 11.9947948452891 
1114	 10.6509116205742 
1115	 4.77040878717462 
1116	 2.90201052735395 
1117	 1.57797086639155 
1118	 2.36604801651045 
1119	 7.76131932468878 
1120	 9.47142304433253 
1121	 10.1948997115214 
1122	 11.3563795677294 
1123	 11.8693298640105 
1124	 10.9107591235547 
1125	 8.57455191509204 
1126	 8.24664942602911 
1127	 7.51928985305031 
1128	 5.02010547091224 
1129	 4.30296183354961 
1130	 5.88491630277543 
1131	 5.57389604331849 
1132	 3.35081451058111 
1133	 3.79032772030015 
1134	 6.04551297281693 
1135	 6.84189186884517 
1136	 8.74623697416601 
1137	 9.10054033972346 
1138	 6.65514949323092 
1139	 6.72511826517503 
1140	 8.22980441428114 
1141	 8.68753982088231 
1142	 10.1098881007115 
1143	 10.68274478295 
1144	 8.51412201205145 
1145	 8.92648908450726 
1146	 10.8077590912092 
1147	 12.7463703585504 
1148	 15.4055532832651 
1149	 20.5525784079046 
1150	 21.855403402408 
1151	 22.5902262455278 
1152	 20.8880152339168 
1153	 15.347927726394 
1154	 13.2371582112097 
1155	 10.3070260371509 
1156	 9.41778353420185 
1157	 11.3578997461274 
1158	 11.7481684110696 
1159	 12.4190811039115 
1160	 12.5282387610248 
1161	 12.1150155838779 
1162	 11.9256864217178 
1163	 11.1141206936855 
1164	 11.1555267104296 
1165	 11.887208236944 
1166	 12.3474089060909 
1167	 14.3502000018928 
1168	 14.0467744219515 
1169	 13.5003735561402 
1170	 12.4476216432667 
1171	 10.5171652005349 
1172	 6.62785848361733 
1173	 5.75497627510752 
1174	 4.86912285160014 
1175	 5.9176041530381 
1176	 10.8642948228862 
1177	 11.5530822242645 
1178	 10.0396613857613 
1179	 11.0386628031284 
1180	 11.4205970899612 
1181	 12.3445680435988 
1182	 16.056077001248 
1183	 17.8609489963634 
1184	 17.9186491942373 
1185	 18.503116033429 
1186	 19.0630108412572 
1187	 19.732322686166 
1188	 22.0736748674557 
1189	 21.2394132526344 
1190	 16.4937190519996 
1191	 15.8175498306596 
1192	 14.5631019515145 
1193	 11.8260980130854 
1194	 15.1539568100274 
1195	 18.9633106075109 
1196	 19.1811119088243 
1197	 17.252616920074 
1198	 16.9556504359866 
1199	 14.1054629238253 
1200	 14.1697353175564 
1201	 18.7357342761807 
1202	 19.3856558908477 
1203	 18.3326098154424 
1204	 17.7611651910905 
1205	 15.1783405854543 
1206	 13.4897259995089 
1207	 12.8102364058962 
1208	 12.8090026472723 
1209	 11.8818821684295 
1210	 12.2705056366134 
1211	 14.853657484419 
1212	 16.7007683423803 
1213	 14.7614809738142 
1214	 16.799406254575 
1215	 16.3889460630844 
1216	 14.3224357382036 
1217	 18.2828688860212 
1218	 20.7214457196675 
1219	 22.0428802173711 
1220	 22.569306870674 
1221	 21.334823879291 
1222	 16.9008530056273 
1223	 14.4248263573646 
1224	 9.87980678203477 
1225	 10.1082115190392 
1226	 12.7631539481123 
1227	 14.8255664256847 
1228	 21.3722900776087 
1229	 24.6916907469104 
1230	 26.2914875941521 
1231	 26.6880882889448 
1232	 26.2751296044712 
1233	 24.1143449194446 
1234	 18.3395290758633 
1235	 15.8267057686377 
1236	 13.5190344970611 
1237	 11.7055979288518 
1238	 14.0983062568651 
1239	 15.3111887250109 
1240	 16.5532146201042 
1241	 21.1505558558436 
1242	 20.6558673134234 
1243	 22.0580301937196 
1244	 23.9478655743598 
1245	 22.9284963191312 
1246	 25.6713470898194 
1247	 23.9785030729449 
1248	 20.9156611557358 
1249	 18.4852727110854 
1250	 16.0671342285156 
1251	 13.0291237794709 
1252	 12.8029013169589 
1253	 13.0370271782404 
1254	 14.2864746208154 
1255	 18.575488969162 
1256	 20.3912298591829 
1257	 21.3007469568162 
1258	 23.0054478152588 
1259	 25.7637820833586 
1260	 25.2483293348964 
1261	 22.6981041019553 
1262	 22.6675058364443 
1263	 18.5370651853334 
1264	 15.2522920674814 
1265	 15.7809169998821 
1266	 17.3674952609502 
1267	 21.9759142921707 
1268	 25.0480200687724 
1269	 25.946359874092 
1270	 27.5421713761546 
1271	 26.8006169347789 
1272	 23.8816151345212 
1273	 21.5211822158588 
1274	 19.0788039236172 
1275	 18.6378814686806 
1276	 21.6912667858986 
1277	 24.160059834012 
1278	 25.8590576752221 
1279	 27.0936613446338 
1280	 25.9811603530489 
1281	 25.9334325327774 
1282	 26.7673645647571 
1283	 27.6169097150711 
1284	 29.0951232413739 
1285	 29.2906156693025 
1286	 28.8937138863852 
1287	 28.657411286825 
1288	 27.9777750553819 
1289	 25.7647585080881 
1290	 25.5558751183861 
1291	 25.5251367114281 
1292	 23.2434834934984 
1293	 23.1864335923756 
1294	 24.8112584736317 
1295	 24.1283271699866 
1296	 23.8968511819059 
1297	 22.7305310955062 
1298	 20.0092030241409 
1299	 20.9933646895032 
1300	 22.2427124040344 
1301	 25.1365523839078 
1302	 28.4364338205748 
1303	 26.5630454235739 
1304	 23.1621622373395 
1305	 19.3667970723861 
1306	 16.8455176465828 
1307	 15.5460985903728 
1308	 15.7006397459345 
1309	 16.3472832338779 
1310	 15.640744092747 
1311	 18.0805503304888 
1312	 19.6699628650338 
1313	 21.6981495672792 
1314	 23.2633030675131 
1315	 25.088672474676 
1316	 25.1656614846803 
1317	 25.0695649286112 
1318	 24.5144617791049 
1319	 22.9248664454716 
1320	 19.9661251661359 
1321	 19.7648523990823 
1322	 20.6124625337697 
1323	 20.7632561275791 
1324	 22.1511639717351 
1325	 23.3492683150086 
1326	 23.5552162008497 
1327	 23.378295776018 
1328	 22.5768762881516 
1329	 21.3898401387428 
1330	 20.2971285652687 
1331	 19.6085750223307 
1332	 21.4231232577094 
1333	 21.6772467038785 
1334	 20.4307886039589 
1335	 22.3626284731635 
1336	 20.6039023694498 
1337	 18.9804516307554 
1338	 20.0137121695089 
1339	 18.9294920484136 
1340	 19.8131624667894 
1341	 22.0702373956575 
1342	 22.9095788490435 
1343	 20.9241723672689 
1344	 20.5892650833163 
1345	 21.1551956548009 
1346	 20.4628923827292 
1347	 20.8071413713542 
1348	 23.2904638137636 
1349	 23.8439250315932 
1350	 23.1077144928804 
1351	 21.5350666110851 
1352	 19.9086763231299 
1353	 18.8144570935355 
1354	 15.8683579710812 
1355	 16.6961266261157 
1356	 18.3563141612505 
1357	 17.9270471120339 
1358	 17.0004507708954 
1359	 17.1939026599018 
1360	 19.2916938150015 
1361	 18.4948338972085 
1362	 18.9736998834699 
1363	 21.221767236396 
1364	 20.3282770811227 
1365	 18.818717662633 
1366	 19.0584718311121 
1367	 18.1011838002807 
1368	 17.0742219365953 
1369	 18.7195273377223 
1370	 19.0848876492114 
1371	 19.0509535923967 
1372	 18.3751458287589 
1373	 16.6498358422267 
1374	 15.7534703816306 
1375	 14.8682454082943 
1376	 15.286036354457 
1377	 15.6242467375391 
1378	 18.0874732837205 
1379	 21.4989155753763 
1380	 21.5003663337515 
1381	 22.9200584943973 
1382	 25.782456099606 
1383	 25.1747355925622 
1384	 23.9680664082626 
1385	 24.288243932686 
1386	 23.216297383784 
1387	 22.0670284642681 
1388	 22.414559941756 
1389	 23.7312152398493 
1390	 25.0635652999556 
1391	 27.1953534403483 
1392	 27.0492731077403 
1393	 25.5206586344999 
1394	 25.3100579418692 
1395	 24.0392579033714 
1396	 22.800427682063 
1397	 25.2070537149759 
1398	 25.6999556648212 
1399	 23.419719702239 
1400	 22.8982219031887 
1401	 21.0557116326055 
1402	 20.7098283179972 
1403	 23.46145020421 
1404	 25.6941953537786 
1405	 29.16118117484 
1406	 30.9022758613714 
1407	 29.5390630751725 
1408	 27.6279189661146 
1409	 22.9684361160558 
1410	 21.1662893903909 
1411	 23.6827496085766 
1412	 25.2893715925089 
1413	 28.4954902853234 
1414	 29.6771047486326 
1415	 26.8518924470389 
1416	 24.9443909452703 
1417	 24.1742054597941 
1418	 24.7838787709531 
1419	 26.4982573405901 
1420	 27.2730351825535 
1421	 27.5405400299182 
1422	 28.2303075955904 
1423	 28.9987436178527 
1424	 27.7441419368504 
1425	 25.4473852859636 
1426	 23.5487260176863 
1427	 23.5362534464987 
1428	 26.2454983402415 
1429	 25.0181084304606 
1430	 23.9476873596912 
1431	 25.7148286147039 
1432	 26.6007861722609 
1433	 29.0982995923206 
1434	 29.7651788218883 
1435	 29.8315716242011 
1436	 30.1270414761572 
1437	 30.2592997697194 
1438	 31.9708973763431 
1439	 33.3282274379737 
1440	 33.0659812249703 
1441	 32.2053287997545 
1442	 34.5411399626129 
1443	 35.1339689425733 
1444	 33.4608831036538 
1445	 32.8075178783202 
1446	 31.6590135337235 
1447	 31.7797968103822 
1448	 34.0106892061932 
1449	 33.3196576240804 
1450	 32.9403102742482 
1451	 31.6917488548974 
1452	 27.1931332475877 
1453	 25.1439725859849 
1454	 26.9285190306532 
1455	 26.7194438149724 
1456	 29.3537625045901 
1457	 31.2817765581908 
1458	 28.7971263221114 
1459	 28.8321071544353 
1460	 29.6736000519367 
1461	 28.3490634828829 
1462	 29.3649655986025 
1463	 31.13680910072 
1464	 30.6491651021641 
1465	 31.1062188090796 
1466	 32.429081187081 
1467	 33.1375803951534 
1468	 33.0404331145672 
1469	 31.9222657522603 
1470	 29.3013202274182 
1471	 26.4066086990995 
1472	 24.3616356263642 
1473	 24.1048949000067 
1474	 28.474268511637 
1475	 34.038324382111 
1476	 37.5097710860969 
1477	 38.0384460215302 
1478	 35.6938948580889 
1479	 33.0239217298399 
1480	 31.4522092892004 
1481	 30.2575035789176 
1482	 33.1382521260605 
1483	 35.6842936869539 
1484	 32.8379005633616 
1485	 34.3292033798922 
1486	 32.8755971297747 
1487	 28.2084480805807 
1488	 31.7736687430052 
1489	 32.1108441030073 
1490	 27.9888438540649 
1491	 29.4254396575391 
1492	 29.3255201474448 
1493	 27.8019688188851 
1494	 30.2729226797897 
1495	 30.9394041295302 
1496	 29.8103290173278 
1497	 29.971793952533 
1498	 31.6261869941471 
1499	 32.368507103746 
1500	 30.9381384627265 
1501	 29.1637901768752 
1502	 26.5357542063209 
1503	 23.654589207635 
1504	 24.5549796486077 
1505	 28.7309699012072 
1506	 33.347729396662 
1507	 37.1762770144667 
1508	 37.1118653476599 
1509	 34.0391707771532 
1510	 29.9863519898747 
1511	 27.8235199610991 
1512	 27.4165425853517 
1513	 26.4068187356739 
1514	 27.1542630017274 
1515	 27.1503186026295 
1516	 28.0112498107376 
1517	 31.3477304377063 
1518	 31.5536467817432 
1519	 32.6869022239274 
1520	 33.685964837164 
1521	 33.2254443615961 
1522	 34.9994001340574 
1523	 34.2488684836008 
1524	 32.8263411238689 
1525	 31.7451313213401 
1526	 30.2895904333105 
1527	 30.0688233713439 
1528	 29.8197498450181 
1529	 30.8804379795519 
1530	 32.0823554009307 
1531	 34.1233674092501 
1532	 35.7061683401349 
1533	 31.8663937020625 
1534	 27.81675374558 
1535	 24.5651369474922 
1536	 21.1524554426157 
1537	 21.9777047506419 
1538	 24.5153696915308 
1539	 27.4479442770643 
1540	 31.1321213162668 
1541	 33.8221294703595 
1542	 34.7822570395569 
1543	 34.0221738033955 
1544	 32.007051782545 
1545	 30.4889612084189 
1546	 30.640756855437 
1547	 30.5886889301933 
1548	 31.9742365546016 
1549	 33.7050532244062 
1550	 33.1644740666152 
1551	 33.5980800906695 
1552	 32.5917187018419 
1553	 30.8695968327548 
1554	 30.64452305435 
1555	 28.7817405724386 
1556	 27.3760887487908 
1557	 27.995263037621 
1558	 29.2553073901902 
1559	 30.5021652287623 
1560	 32.8174217818158 
1561	 35.0087929958027 
1562	 33.8019594760629 
1563	 31.5820998948365 
1564	 30.2356814682107 
1565	 27.5930971066053 
1566	 26.2025538324622 
1567	 26.2283038031105 
1568	 23.8583434956507 
1569	 23.1593793956613 
1570	 25.4257486505489 
1571	 27.4216137459861 
1572	 29.5295587108986 
1573	 30.5685178310836 
1574	 31.3971149804317 
1575	 32.2726091998909 
1576	 34.1075585336549 
1577	 35.7576767945351 
1578	 33.0309942242263 
1579	 30.2223381575795 
1580	 28.0662014876984 
1581	 27.1439333034587 
1582	 28.1157124657283 
1583	 27.2121437299023 
1584	 26.7451620401215 
1585	 26.3253589620348 
1586	 25.9547759816881 
1587	 28.2619373894402 
1588	 30.6299975957533 
1589	 32.4835235662012 
1590	 34.456870024417 
1591	 36.8424943041853 
1592	 38.131310037161 
1593	 37.0761896447981 
1594	 35.5455883105881 
1595	 33.94398849664 
1596	 31.544560855017 
1597	 29.9574916845992 
1598	 32.615360428154 
1599	 33.6950088325925 
1600	 32.9045368600856 
1601	 33.3793742377021 
1602	 31.6111067668708 
1603	 30.0268420377831 
1604	 29.7744869587166 
1605	 28.5696032260327 
1606	 24.8464584686462 
1607	 21.4694170732559 
1608	 21.8575107189539 
1609	 24.4240825671548 
1610	 29.4271918371288 
1611	 32.6278089318542 
1612	 29.7847473368644 
1613	 28.530051641282 
1614	 26.3648920613093 
1615	 22.9646571644531 
1616	 23.5834355311408 
1617	 21.3667419981574 
1618	 19.4295065945666 
1619	 19.7098105845835 
1620	 20.6323396584873 
1621	 23.5771488375739 
1622	 26.7664110967265 
1623	 29.215758302062 
1624	 28.9068541677797 
1625	 27.1174707665394 
1626	 24.7856030007036 
1627	 23.1655724255817 
1628	 22.575930912488 
1629	 21.6620676433336 
1630	 19.3258866947694 
1631	 16.4038146379691 
1632	 16.6604740249168 
1633	 18.2267106546223 
1634	 20.4884907432982 
1635	 21.493797754809 
1636	 20.2153863702364 
1637	 19.7045020756382 
1638	 19.6803283142824 
1639	 19.5716014434634 
1640	 18.3118333422631 
1641	 18.4952143690516 
1642	 20.7612107374705 
1643	 21.3640043987958 
1644	 21.9785571428562 
1645	 22.5453358144657 
1646	 21.2851161909524 
1647	 20.9299079593292 
1648	 21.6521869450568 
1649	 22.0096317560964 
1650	 23.4498656573266 
1651	 22.7175790780572 
1652	 20.3459549110151 
1653	 18.9641353452879 
1654	 14.9738767187895 
1655	 14.4797768332754 
1656	 18.3938341967397 
1657	 18.0673506138933 
1658	 17.3513026558713 
1659	 16.1362721142847 
1660	 11.7371123420824 
1661	 9.27358719754015 
1662	 7.52878086686889 
1663	 6.28703634955477 
1664	 5.68478393007584 
1665	 5.03356378951429 
1666	 5.3581868742156 
1667	 5.08159265200277 
1668	 3.98961932418544 
1669	 3.5252826060235 
1670	 3.38374686942489 
1671	 3.55519937606883 
1672	 4.02981485828735 
1673	 4.13769911890145 
1674	 4.90925491940874 
1675	 4.71341956226861 
1676	 3.25766861428449 
1677	 3.54460463910105 
1678	 4.2779259660636 
1679	 3.88715277013344 
1680	 3.84585597881943 
1681	 4.35619814758464 
1682	 4.40386035109933 
1683	 5.56337994050475 
1684	 6.08993742550813 
1685	 5.40519737074864 
1686	 1.32458342519967 
1687	 1.35268152466854 
1688	 1.05342501482744 
1689	 2.33216480829761 
1690	 3.1122485777883 
1691	 2.06403176905048 
1692	 2.64313579069429 
1693	 5.62479854893857 
1694	 6.40617295761539 
1695	 7.13217284122409 
1696	 6.97282296099327 
1697	 4.29835199686667 
1698	 2.70085162310286 
1699	 1.32795974059313 
1700	 0.174384440450434 
1701	-1.49716428912512 
1702	-1.62890828593145 
1703	-0.151065657687968 
1704	 0.361510578043495 
1705	 2.03701758583208 
1706	 2.09165291460455 
1707	 0.645922854762774 
1708	-0.550414287172826 
1709	-3.61858947783694 
1710	-3.39287616908567 
1711	-1.09941978167804 
1712	-0.247940784422609 
1713	 2.62815303508206 
1714	 3.07995675466709 
1715	 0.592337991055288 
1716	 0.389858258114748 
1717	 1.0242087194504 
1718	 1.02357219081812 
1719	 1.86049984205359 
1720	 1.02422892125148 
1721	-1.77352385312772 
1722	-1.88837744353105 
1723	-1.53491227456186 
1724	-1.1897768926977 
1725	 1.05433379795158 
1726	 1.34388303695782 
1727	-4.38253272893808E-02 
1728	 2.27448993065476 
1729	 0.660779478737943 
1730	-1.3764234413541 
1731	-0.829287541015813 
1732	-1.09542729611751 
1733	-0.840309470623567 
1734	 1.19985066124873 
1735	 1.95489863903858 
1736	 1.49505079899887 
1737	 1.49323092655238 
1738	 0.967060274772967 
1739	 0.99275490529664 
1740	 1.84144472565863 
1741	 2.55527140017936 
1742	 4.43695724019404 
1743	 4.25093085540523 
1744	 2.50985021934257 
1745	 1.09057632848323 
1746	-2.89543568659674 
1747	-2.60937004717459 
1748	 1.45309887208865 
1749	 2.29979668738597 
1750	 2.87579310895479 
1751	 3.62131741635957 
1752	 2.65517539195923 
1753	 2.68500459098913 
1754	 4.71378350287686 
1755	 5.56229021696945 
1756	-12.7987241730089 
1757	-12.05877541818 
1758	-25.1716800348457 
1759	-26.9571665566758 
1760	-23.7498524697954 
1761	-16.0017817028122 
1762	-21.4655812620506 
1763	-17.3723089276576 
1764	-15.1693933725697 
1765	-19.2579440944457 
1766	-19.0194552695028 
1767	-6.99925603630407 
1768	-6.3014104206827 
1769	-18.6469561027668 
1770	-18.1301582859502 
1771	-1.30826710588483 
1772	 5.80480207443262 
1773	 10.1162011772278 
1774	 28.1953562938319 
1775	 29.2248208426652 
1776	 9.15883037984444 
1777	-0.612987000722517 
1778	-11.2422024713373 
1779	-19.7154952353457 
1780	-24.7256636110409 
1781	-22.2515364366518 
1782	-18.3243004047616 
1783	-15.4490145356806 
1784	-9.3859000192086 
1785	-2.64744241653787 
1786	 8.23535795241549 
1787	 20.9966298970547 
1788	 22.8262249989261 
1789	 19.1644244317195 
1790	 6.92288676612709 
1791	 0.294916120981224 
1792	-1.0159231369305 
1793	 1.50268081780303 
1794	 7.56315470214837 
1795	 24.4792799093252 
1796	 19.1453439030968 
1797	 9.30097060895096 
1798	 9.93150674760118 
1799	-8.5597607082173 
1800	-21.9312369924734 
1801	-16.0704755212464 
1802	-14.1892702281142 
1803	-13.1695841690988 
1804	-14.9458029489661 
1805	-7.92717160082779 
1806	 1.07802559202459 
1807	 17.4366676827885 
1808	 31.5108383986111 
1809	 43.6559733593294 
1810	 37.0071075878638 
1811	 10.5957295054629 
1812	 2.38058506517424 
1813	-7.30834869031074 
1814	-8.18670398937607 
1815	 9.49102215873526 
1816	 12.5371978521927 
1817	 17.4734897051822 
1818	 6.69982955244554 
1819	-12.7514064887596 
1820	-13.2710272831477 
1821	-15.1956508819346 
1822	-10.6051423289259 
1823	-12.3810588865375 
1824	-12.5012625174682 
1825	-14.7543186155311 
1826	-24.7893575454866 
1827	-28.1083089127601 
1828	-31.9460026955425 
1829	-25.5376114518964 
1830	-22.7501019581872 
1831	-15.5109530733703 
1832	-14.0123447084469 
1833	-16.804376641105 
1834	-13.8861327819856 
1835	-8.03716417273907 
1836	-6.41133188198404 
1837	-1.50700483954512 
1838	 0.276615523274284 
1839	-2.1435978167548 
1840	-7.84088712112313 
1841	-12.9826602919837 
1842	-19.328095794283 
1843	-23.5248194452727 
1844	-32.5658636820703 
1845	-36.0296817024587 
1846	-33.0575538320424 
1847	-32.0458853853234 
1848	-36.4449128637019 
1849	-26.0376411211401 
1850	-16.5443516397903 
1851	-8.95733235551769 
1852	-7.39486659568397E-02 
1853	 18.3436892321513 
1854	 20.2341274636355 
1855	 8.65824278662923 
1856	 6.79709228280291 
1857	 3.51000911416589 
1858	-4.45717113021178 
1859	-4.9431919004111 
1860	 2.86260742307103 
1861	-8.11288720598961 
1862	-10.3720502175794 
1863	-6.54664885897324 
1864	 4.37130049734001 
1865	 5.2777077487701 
1866	 10.3680060178107 
1867	 9.01456949129627 
1868	-5.167456312657 
1869	-10.4964120742487 
1870	-6.46327496148746 
1871	 4.59367687888363 
1872	 14.1634286778977 
1873	 22.01875718273 
1874	 22.5528194330275 
1875	 14.7283475763198 
1876	 13.5096303926095 
1877	 13.1255908120564 
1878	 19.5526242590762 
1879	 22.7044876699411 
1880	 11.9726441550095 
1881	 0.302750111310567 
1882	-14.3980932846066 
1883	-24.4289545948419 
1884	-10.8008608796291 
1885	 2.51693391752933 
1886	 0.983877837931286 
1887	-2.63827500268968 
1888	-13.9888125815381 
1889	-29.9151715342208 
1890	-34.3649975073388 
1891	-24.811231525053 
1892	-8.96084488997782 
1893	 10.0797066217058 
1894	 12.8098531085181 
1895	 1.54770544290186 
1896	-11.6269392468484 
1897	-15.0336396255719 
1898	-13.878940503548 
1899	-14.1301224450412 
1900	-9.08482186662349 
1901	-3.19301878869538 
1902	-1.01342534074448 
1903	-15.5366282620635 
1904	-15.4679001356834 
1905	-16.9598032917949 
1906	-19.5116757169836 
1907	-12.1203435708612 
1908	-6.37736860375517 
1909	 7.14747050707624 
1910	 13.0922385736472 
1911	 15.1022618597845 
1912	 18.5307066385196 
1913	 22.3504740300905 
1914	 17.3931728068137 
1915	 17.917048741026 
1916	 16.1143782900466 
1917	 5.84602825833238 
1918	 6.43441134285816E-02 
1919	 3.08743626335871 
1920	 13.5335189206174 
1921	 20.3713428189135 
1922	 39.5294792625095 
1923	 45.6437500069177 
1924	 43.8842103547226 
1925	 40.5420011274336 
1926	 32.1795715269843 
1927	 21.0786652513067 
1928	 8.92100184231016 
1929	-0.515978949816986 
1930	-10.1352527950201 
1931	-19.7598038172417 
1932	-27.5790410419976 
1933	-39.208150662698 
1934	-41.2525884617246 
1935	-38.0429021522079 
1936	-33.1022556843317 
1937	-14.8278586299563 
1938	-6.47338452971414 
1939	-0.8395856934895 
1940	 0.389372916902339 
1941	 5.65448407186373 
1942	 6.44543562433853 
1943	 13.6043121187585 
1944	 27.7671203117624 
1945	 37.4416222267148 
1946	 52.6994738827558 
1947	 55.7169137578292 
1948	 57.1260393910124 
1949	 48.1760672238551 
1950	 16.2674486383833 
1951	-0.251080405038787 
1952	-18.5339944726453 
1953	-32.8101394035416 
1954	-35.3834517945029 
1955	-20.4238079520379 
1956	-17.8621483765901 
1957	-11.5252021250511 
1958	-10.8362018189375 
1959	-16.5911941701818 
1960	-19.6280139224101 
1961	-25.4598804842767 
1962	-26.9119304412891 
1963	-31.7765706486014 
1964	-27.4745017041043 
1965	-19.4066307932898 
1966	 1.07685903652283 
1967	 11.3511165599939 
1968	 32.1955404529284 
1969	 30.7541692699524 
1970	 10.9611025167123 
1971	 2.51111412826338 
1972	-16.4209679215211 
1973	-23.8134880252336 
1974	-23.3859755741563 
1975	-20.4432939088777 
1976	-9.94000155798508 
1977	-3.4858702129366 
1978	 7.25929011130814 
1979	 16.8973292804519 
1980	 17.600977456652 
1981	 11.1740500615623 
1982	 5.09171774457933 
1983	-10.1235439534599 
1984	-14.2188853741661 
1985	-15.4666073529955 
1986	-15.5788098392004 
1987	-6.7062406730329 
1988	-6.03932654491183 
1989	-7.80820461590958 
1990	-10.4767229865138 
1991	-17.2115053987803 
1992	-25.2087042631516 
1993	-29.4134872020927 
1994	-30.5696911227213 
1995	-29.1727188922912 
1996	-24.1926211834799 
1997	-17.1129180948915 
1998	-5.88166081976351 
1999	 2.27347492212843 
2000	 16.254033624891 
2001	 20.9190215465572 
2002	 16.4512864029264 
2003	 17.844202492189 
2004	 22.8400835951035 
2005	 15.4234581946196 
2006	 13.6997166322783 
2007	 16.8775619721838 
2008	 6.14709442322152 
2009	 6.11083490991129 
2010	 3.81789441028271 
2011	 0.917259852977182 
2012	 6.99539916635286E-02 
2013	-1.77506752819223E-02 
2014	 1.38871351930091 
2015	 7.12269771825255 
2016	 11.0908264431247 
2017	 19.0374045017192 
2018	 20.4659661406233 
2019	 18.3453548738954 
2020	 14.2610030237237 
2021	 4.58482246488895 
2022	-5.07813902888042 
2023	 0.673314890620076 
2024	 0.03676789286274 
2025	-3.19704124139578 
2026	-4.11587419865161 
2027	-8.73508602245199 
2028	-24.5403618890067 
2029	-24.7275022673277 
2030	-13.8927410417932 
2031	-9.11153506199325 
2032	 4.16599951647448 
2033	 2.21280078132362 
2034	-1.83905921369901 
2035	-9.05842550600907 
2036	-23.0615434827792 
2037	-18.2311217765966 
2038	-13.3124498866824 
2039	-15.6284023650072 
2040	 0.509132454220454 
2041	 2.97358990501572 
2042	 1.81116146556601 
2043	-0.793054750360897 
2044	-7.63677799613914 
2045	-25.5274171194661 
2046	-32.3702308887885 
2047	-42.1701102020269 
2048	-41.4656721616313 
2049	-27.545826520123 
2050	-24.9517405296112 
2051	-12.5308317697866 
2052	-11.1488589008204 
2053	-15.3716901033984 
2054	-20.6589516974874 
2055	-24.1879498600224 
2056	-18.0695522361594 
2057	-11.4666007163778 
2058	-3.68911270962559 
2059	 4.24323857275777 
2060	 11.2106840458617 
2061	 19.349353896107 
2062	 34.5629096573087 
2063	 42.9030645839423 
2064	 51.1371537627368 
2065	 46.9995548308521 
2066	 39.4092488409862 
2067	 29.2051936950523 
2068	 26.1824107940035 
2069	 16.193475809611 
2070	 13.7410950672383 
2071	 6.66889170807956 
2072	 0.902181034384971 
2073	 13.1098655116488 
2074	 19.2815752153899 
2075	 27.7599453347675 
2076	 31.9676721985489 
2077	 30.369499548139 
2078	 25.0989930742943 
2079	 19.5210103133913 
2080	 12.1260302454167 
2081	-1.17403347520374 
2082	-17.2027864274391 
2083	-22.0379131670298 
2084	-24.8831452297221 
2085	-25.7338282864426 
2086	-22.1091330725537 
2087	-10.0660081299579 
2088	-8.98130002094911 
2089	-8.8704918147086 
2090	 1.90024990544016 
2091	-7.19613530616797 
2092	-14.5157829394491 
2093	-19.3742133312952 
2094	-36.1447528704448 
2095	-39.8232352575253 
2096	-36.3808600935198 
2097	-31.9702510357863 
2098	-22.6713966826921 
2099	-5.35056786173221 
2100	 1.39221823663073 
2101	 9.64197633620638 
2102	 9.97165623943123 
2103	 1.670942422354 
2104	-0.296410968724809 
2105	-9.38702261973783E-02 
2106	 3.94403993862931 
2107	 16.3125787684108 
2108	 21.293432256622 
2109	 17.6116379872951 
2110	 16.2619660756164 
2111	 1.5649025283644 
2112	-4.1404566796292 
2113	-1.88500036118148 
2114	-2.26403906682963 
2115	 2.31016042595042 
2116	 7.26904343526244 
2117	 14.6660076415409 
2118	 14.7666319999166 
2119	 12.8662891789281 
2120	 3.88136523462088 
2121	-1.51431511191587 
2122	-8.96646503466659 
2123	 0.264947251933823 
2124	 13.9425570971038 
2125	 17.5028863243243 
2126	 11.8922125199689 
2127	-8.58294418714704 
2128	-22.0968006323634 
2129	-28.1545145335165 
2130	-29.4179483213257 
2131	-19.253456737431 
2132	-16.9162480445438 
2133	-13.3185700350226 
2134	-3.13370699247557 
2135	 4.4665602394103 
2136	 17.0966098262009 
2137	 23.4141247285858 
2138	 26.2368020502018 
2139	 25.7179185918654 
2140	 20.0399262506341 
2141	 15.8790989900786 
2142	 12.8039042112114 
2143	 5.21858501424156 
2144	 2.24125875414848 
2145	-11.1778816614158 
2146	-25.9559643155579 
2147	-36.2884373163256 
2148	-50.8639491130817 
2149	-41.9063274670811 
2150	-29.1868531042232 
2151	-16.6963885881836 
2152	 8.6713298009204 
2153	 15.7530542067114 
2154	 15.8651085139 
2155	 14.7351654974191 
2156	 4.48624956653811 
2157	-2.79435098710118 
2158	-11.0095139587029 
2159	-21.7970815339829 
2160	-27.2108582415979 
2161	-33.7646323735483 
2162	-34.2822750891978 
2163	-25.6501345987317 
2164	-25.3148577448954 
2165	-23.8756081880051 
2166	-25.5221035611301 
2167	-36.9390435467255 
2168	-37.2087416771926 
2169	-36.5189982445785 
2170	-31.4768020468369 
2171	-21.5638442077221 
2172	-15.5351110830817 
2173	-10.072752134075 
2174	-4.59643595710149 
2175	 0.293766459114983 
2176	 4.12573538111561 
2177	 9.92939156130062 
2178	 13.0185689884375 
2179	 6.02873036314825 
2180	 1.08890075279101 
2181	-8.03353930428888 
2182	-17.9696836983698 
2183	-17.7031040220937 
2184	-8.73717083847823 
2185	-3.48527092616453 
2186	 14.7593924776463 
2187	 20.0956121125147 
2188	 16.7918509983045 
2189	 18.0842769127967 
2190	 14.4160109071266 
2191	 4.85140101456545 
2192	-0.945103665295892 
2193	-6.71981834307403 
2194	-5.79730781107965 
2195	-8.67229588006057 
2196	-7.09131927996849 
2197	-4.5240797898929 
2198	-5.90402455546004 
2199	-2.08811425472788 
2200	-4.08144652943702 
2201	 1.01457095767746 
2202	 4.78611821283298 
2203	-4.35609688933586 
2204	-7.92924971664735 
2205	-16.5343671620715 
2206	-19.6924248489035 
2207	-7.96198018187005 
2208	 6.02609108475772 
2209	 23.2363584542932 
2210	 24.7996366900311 
2211	 10.7845291051002 
2212	 8.74791422707587 
2213	-2.20864015483324 
2214	-6.00143750072203 
2215	 1.27607008398518 
2216	 3.69731942260887 
2217	 9.46920450143524 
2218	 9.6228184888751 
2219	 5.27071580369948 
2220	 8.2293009367873 
2221	 7.66387536641182 
2222	-0.391983558776336 
2223	 9.80218373956173 
2224	 18.1094402468275 
2225	 19.4120654176138 
2226	 22.9640576671152 
2227	 15.8339916662121 
2228	 1.26759953268469 
2229	-10.4848777723166 
2230	-19.8758720026705 
2231	-25.8787582943908 
2232	-26.6952656388561 
2233	-29.3676656112611 
2234	-24.4249540200978 
2235	-20.2530823634768 
2236	-15.0920359608702 
2237	-1.49801866464369 
2238	-8.39280630181486 
2239	-18.0181702882714 
2240	-22.6295243785844 
2241	-32.77444702505 
2242	-25.6824225968307 
2243	-21.1397077559245 
2244	-7.94678006836149 
2245	-6.51292045855772 
2246	-14.2818194880146 
2247	-16.2988544667568 
2248	-24.2002215200125 
2249	-23.5831193215294 
2250	-9.15828034209324 
2251	-1.26709133830758 
2252	 10.2922672846367 
2253	 16.580474440851 
2254	 16.0132305386975 
2255	 14.3055091207165 
2256	 8.99845273287231 
2257	 4.16058996493186 
2258	-4.63778061352699 
2259	-12.6856793173578 
2260	-12.9657148161437 
2261	-22.9967771110621 
2262	-24.7172532742651 
2263	-16.5133100730129 
2264	-9.9152167472154 
2265	-2.79468401527954 
2266	 7.06498159364403 
2267	 12.719317564995 
2268	 6.54028659990132 
2269	 2.23048696020769E-02 
2270	-13.4129647086831 
2271	-25.4974314673743 
2272	-29.3908345949354 
2273	-28.4623403772981 
2274	-19.1081721042265 
2275	-8.13707145289933 
2276	 2.67701498517332 
2277	 12.4893516393609 
2278	 23.4672457106134 
2279	 21.0958136035922 
2280	 23.0129250870233 
2281	 21.7737730668686 
2282	 2.61238766358489 
2283	-4.56800876234758 
2284	-21.199987810509 
2285	-33.2750181219974 
2286	-33.06397843536 
2287	-18.4985333755476 
2288	-14.8553522323579 
2289	-3.54654231746348 
2290	-2.46807298229787 
2291	-10.8091154730157 
2292	-12.825487830885 
2293	-17.9969002902192 
2294	-19.2417079278171 
2295	-16.487237596151 
2296	-18.6262194752767 
2297	-20.031819291348 
2298	-19.0934357307071 
2299	-20.863245433109 
2300	-20.3034849527881 
2301	-16.1597246672562 
2302	-15.1861560434358 
2303	-13.9977734197782 
2304	-13.9697502225299 
2305	-14.196969032966 
2306	-16.0536363570363 
2307	-24.5861653823392 
2308	-28.661977214224 
2309	-30.5303817893335 
2310	-30.7409830734699 
2311	-36.3767847515536 
2312	-29.5148759177958 
2313	-30.6370229355582 
2314	-36.4083318991116 
2315	-29.0860699717787 
2316	-22.9120532284062 
2317	-14.4634541029798 
2318	 0.84062605175771 
2319	 8.52396897397939 
2320	 7.12925428647934 
2321	 8.95080475179527 
2322	 3.41712572424537 
2323	-8.32307343895316 
2324	-12.5918226943732 
2325	-29.0358249237931 
2326	-35.7744502185091 
2327	-35.8691035353154 
2328	-43.4551390006171 
2329	-38.8988960706176 
2330	-38.360456470214 
2331	-31.3691149558667 
2332	-22.4902241537587 
2333	-17.7044449527529 
2334	-14.4410032750815 
2335	-20.1443403647608 
2336	-23.7876604238379 
2337	-20.7107434444566 
2338	-14.0394936317765 
2339	-12.362365095139 
2340	-5.53719337828084 
2341	-1.39143491729925 
2342	-6.54240953119249 
2343	 2.85549630215457 
2344	 15.9238062729951 
2345	 29.7262019250739 
2346	 46.5959361834036 
2347	 46.792232722468 
2348	 34.1940844190089 
2349	 11.7606093784653 
2350	-16.0148438395186 
2351	-31.8093586831987 
2352	-40.9430790917175 
2353	-48.9844201859967 
2354	-48.9225973474178 
2355	-55.619323465712 
2356	-64.3974504936676 
2357	-65.9060272810109 
2358	-68.0774605688534 
2359	-64.2688015539298 
2360	-54.9660315428503 
2361	-47.4755493708311 
2362	-36.3638555890144 
2363	-18.8335485226664 
2364	-12.9995335258154 
2365	-15.4648298510381 
2366	-16.6830620126434 
2367	-18.9867556377572 
2368	-12.6104594523309 
2369	 8.37742210494868 
2370	 28.6844157660414 
2371	 31.9666325640241 
2372	 24.8851848060806 
2373	 16.0048711263732 
2374	 9.95888572733342 
2375	-1.62405916831564 
2376	-7.59833901691122 
2377	-9.17206783300008 
2378	-25.5303357152491 
2379	-28.0321764725924 
2380	-24.2848223836592 
2381	-35.3975208027988 
2382	-43.6428405904797 
2383	-37.3056456805456 
2384	-28.8757000956081 
2385	-21.4906926635279 
2386	-7.35826465254901 
2387	-15.1403910420154 
2388	-29.2886505307983 
2389	-28.0000162770387 
2390	-28.2554761600156 
2391	-23.8338616831192 
2392	-18.9335089168599 
2393	-13.6799106686721 
2394	-6.81607450675918 
2395	-3.23321671043378 
2396	 10.9240390547253 
2397	 15.6184312590652 
2398	 2.11210896747982 
2399	 0.225184616436372 
2400	-9.88785682420126 
2401	-25.2999312509481 
2402	-17.3033074744116 
2403	-18.512268127356 
2404	-24.4966112675568 
2405	-13.4211622987536 
2406	-13.0466776421173 
2407	-10.3222205818087 
2408	-4.98909829070733 
2409	-12.0091332697388 
2410	-14.326133815095 
2411	-20.0800474476823 
2412	-28.1151963142119 
2413	-22.9072962124551 
2414	-17.0508211611726 
2415	-19.5256542019925 
2416	-6.33541832867298 
2417	 6.937112775924 
2418	 2.55364870999929 
2419	 3.05484432461341 
2420	-2.99629867575402 
2421	-15.759876458665 
2422	-24.2892320201635 
2423	-23.7746608983431 
2424	-9.56391194318588 
2425	 4.60516048124099 
2426	 27.2039252474356 
2427	 41.2705069966017 
2428	 42.3059495674123 
2429	 45.5099714259208 
2430	 34.6756286262396 
2431	 24.3787829098443 
2432	 14.2528582414805 
2433	-8.0579698791512 
2434	-25.4120629129167 
2435	-33.7827345030889 
2436	-41.7460419242887 
2437	-42.5196956916485 
2438	-41.5082213525665 
2439	-47.4476285439679 
2440	-44.4794026138357 
2441	-39.3496190552004 
2442	-39.5631317508789 
2443	-35.3861111889557 
2444	-37.4254066784646 
2445	-49.3340065050942 
2446	-48.5782838073978 
2447	-35.4044719130939 
2448	-26.9649035026041 
2449	-14.8175670083809 
2450	-6.60330713883149 
2451	-13.2145341345549 
2452	-20.0412908932273 
2453	-14.702891441723 
2454	-14.1831387616095 
2455	-28.9327707484367 
2456	-31.6987259125747 
2457	-36.5403856014743 
2458	-39.9901594235669 
2459	-19.4332288679017 
2460	-3.88833497189248 
2461	 4.71445396324561 
2462	 13.800818949146 
2463	 20.0490247535273 
2464	 19.2328377996348 
2465	 18.9797139505248 
2466	 16.4857305119969 
2467	 12.7291429902844 
2468	 9.82362935713844 
2469	 3.60621466612002 
2470	 7.70372844157228 
2471	-6.72694508276574 
2472	-18.6199609003974 
2473	-25.4993563423932 
2474	-41.9291395203921 
2475	-42.9826998473242 
2476	-35.2446595370733 
2477	-37.8531852476642 
2478	-37.3125348904203 
2479	-36.5371868462094 
2480	-36.8491827172977 
2481	-25.1641066581352 
2482	-8.80888724938934 
2483	 9.18355735330502 
2484	 23.1015727272878 
2485	 25.8953024487432 
2486	 22.8768838466182 
2487	 20.4399006568457 
2488	 11.9496826349947 
2489	 3.4794677032334 
2490	-4.0089029513967 
2491	-22.9925075708273 
2492	-33.0097032451835 
2493	-42.6482296150391 
2494	-45.208906417521 
2495	-26.8231184351973 
2496	-21.8454501138572 
2497	-16.8006457740502 
2498	-12.1506626381401 
2499	-23.208815313433 
2500	-33.151789680791 
