Wavelength	4mm_GrayPLA00000.asd
350	 1.0454770674801 
351	 0.692224621699184 
352	 0.610658003400517 
353	-0.637272852435316 
354	 0.708957449959903 
355	 1.45384063220773 
356	-0.626276418407955 
357	-1.60130665021266 
358	-1.63772796297952 
359	-0.874005517134448 
360	 0.431345032041728 
361	-0.862223576056215 
362	-1.83222159616317 
363	 0.159701746890703 
364	 0.061643763726789 
365	-7.06686031446022E-03 
366	 0.400434898527653 
367	-0.668350399703543 
368	-0.769343019444625 
369	 0.116999747700197 
370	 1.20277860079262 
371	 2.47374175015114 
372	 2.463346788203 
373	 0.894290085584948 
374	-0.306238494064061 
375	-8.07231818759828E-02 
376	 0.89391092474327 
377	 0.946067008406998 
378	-0.105029737938049 
379	-0.400121329297756 
380	 0.975843563752379 
381	 1.3871452823145 
382	 1.30662672027465 
383	 1.12068790967943 
384	 1.17672511858318 
385	 5.17790831886846E-02 
386	-1.14586929656361 
387	-1.05455660504928 
388	-0.381918382301912 
389	 0.256487142632414 
390	 0.449657508209018 
391	-5.82147584999946E-02 
392	 0.442475596924759 
393	 1.0903627302863 
394	 0.196566403988172 
395	-0.591292892158497 
396	-0.325817616383622 
397	 1.01711008665425 
398	 1.59720495181208 
399	 0.927771415169981 
400	-0.488330184286664 
401	-1.2659713834337 
402	-0.241779565633283 
403	 1.20425876893053 
404	 1.4884615752836 
405	 1.54653426563105 
406	 0.390778251000733 
407	-1.2094696523541 
408	 0.571363111014004 
409	 1.13103594674891 
410	 0.365082663782806 
411	 2.43819087045369E-02 
412	 0.59341705297809 
413	 0.672185237753451 
414	-0.363778975330299 
415	-0.275056216455057 
416	 0.209052884349842 
417	 0.571726732022916 
418	 0.418983228601688 
419	 8.32926911900487E-02 
420	-0.250040862002366 
421	-0.287846297135946 
422	 1.24404903567673 
423	 1.70725056000775 
424	 0.477832341787386 
425	 1.29314913967826 
426	 1.12517380555145 
427	 5.06771787415463E-02 
428	-0.312577325978961 
429	 3.8508934432622E-03 
430	 0.202595877187813 
431	-0.216783120230531 
432	 8.86160114287872E-02 
433	-0.317316773853914 
434	-1.36759738082933 
435	-1.00841309390469 
436	 5.57973745368865E-02 
437	 0.822746675410535 
438	 0.390719898379663 
439	 0.944355019283561 
440	 1.23840302824204 
441	 0.351445843745212 
442	-0.755223124801302 
443	-1.47182176288893 
444	-1.44623142932315 
445	-0.566694799692092 
446	-0.387317527215303 
447	-0.484564791555101 
448	-8.49156897744604E-02 
449	-0.425717434252324 
450	-0.761878552546966 
451	-0.611160426753118 
452	-0.342082937981244 
453	 0.161003691024667 
454	 0.405883196472015 
455	-0.458701826104358 
456	-0.607164032172458 
457	 2.45297641318685E-02 
458	 0.788075596947516 
459	-0.199027312436278 
460	-0.709904765461772 
461	-2.90432323971117E-02 
462	-0.549511276673968 
463	-0.284729800139359 
464	 0.246788052083972 
465	-0.665526155252065 
466	-1.84328812829784 
467	-1.66040324954018 
468	 0.471436020967788 
469	 0.820659450018402 
470	 0.489440316077288 
471	 0.166485946772814 
472	-0.252174141607812 
473	-1.29296403159586 
474	-1.5554612317078 
475	 0.943003412221638 
476	 2.16700869778629 
477	 1.5540968723316 
478	-0.220811284141031 
479	-0.683648713186091 
480	-0.7341416225665 
481	-0.848779115309474 
482	-0.889904612263917 
483	-0.812352919867285 
484	-0.132074036623085 
485	 1.42876800499425 
486	-0.817793670224483 
487	-2.82300647832058 
488	-1.25392238275074 
489	 0.299795903455264 
490	 0.138427082843683 
491	-1.3830295595036 
492	-1.27285511413186 
493	-0.138228042308192 
494	 0.259844361174451 
495	-1.96187874169889 
496	-1.79481463742423 
497	-1.34136384183977 
498	-2.39346083387823 
499	-2.01789149252948 
500	-0.202114807706176 
501	 1.71315987427584 
502	 0.439301563705002 
503	-1.1575878202425 
504	-2.23978500377644 
505	-2.69875728733467 
506	-2.19462445125189 
507	-1.81366681881338 
508	-1.99694953236929 
509	 3.18651161958044E-02 
510	 0.940292990594526 
511	-0.125846225501932 
512	-0.81085735133841 
513	-1.04085092445297 
514	-1.37623576030124 
515	-2.52742810435756 
516	-1.49180434840995 
517	 0.198028284819993 
518	 0.679677052750365 
519	-0.255725981377042 
520	-1.71959261929914 
521	-2.60877328042325 
522	-1.15907147115907 
523	-1.0350885908084 
524	-1.87304582045077 
525	-1.52506635079477 
526	-1.35773114869714 
527	-1.69940510860746 
528	-2.33847522679632 
529	-1.5410153423603 
530	-1.22395828826806 
531	-1.8250416659337 
532	-1.28355055970752 
533	-0.284008036334982 
534	-0.273623125621709 
535	-2.97191993465667 
536	-3.24359104357933 
537	-1.99778291142582 
538	-1.17048745736415 
539	-0.977064463574994 
540	-0.44081179662613 
541	 0.274749112474925 
542	-1.46847427621914 
543	-2.73057156103028 
544	-2.89940205167621 
545	-2.61525250246753 
546	-0.315308720440821 
547	 1.37682076841315 
548	 6.38473878569685E-02 
549	 0.227874437981717 
550	-7.21867002003641E-02 
551	-1.45852851058322 
552	-0.694382115126633 
553	-0.936131663731825 
554	-1.76434448288636 
555	-0.18737931947913 
556	 1.03471854200797 
557	 0.423304319730409 
558	-2.28189684387985 
559	-1.87962858126508 
560	-1.11185849235293 
561	-1.78158238529538 
562	-1.55908463684149 
563	-0.924060517124291 
564	-0.506508053563341 
565	-1.2339259464677 
566	-1.87952254027763 
567	-1.77998062201608 
568	-0.75909501605092 
569	-1.16613834815453 
570	-1.49715408228017 
571	-0.967587868669385 
572	-2.76454341736941 
573	-3.08074395163743 
574	-1.44216581925969 
575	-1.32261717497617 
576	-1.34842385445558 
577	-0.858021913395174 
578	 0.3938456211713 
579	-0.758122523836436 
580	-1.89819999033493 
581	-0.922968423035821 
582	-0.220249276492431 
583	-0.592889696080267 
584	-1.58278427363397 
585	-0.531876323661486 
586	-1.29438863381003 
587	-2.9373339225226 
588	-2.20859047191413 
589	-1.94391404515409 
590	-2.03962459425548 
591	-1.8330576893778 
592	-0.777081627874307 
593	-0.766280562646 
594	-1.91675765426141 
595	-0.377494516368556 
596	-0.428418662643706 
597	-1.8825222010154 
598	-1.65542609691069 
599	-1.38511110491562 
600	-1.30230416011971 
601	-1.34014305817232 
602	-1.652470791862 
603	-1.65413381906063 
604	-1.23697593043851 
605	-1.77722974882801 
606	-0.858068905102645 
607	 0.907738177313153 
608	 7.31803956951622E-02 
609	-1.37092055553036 
610	-2.14870042624027 
611	-1.49790882203952 
612	-2.08669288933868 
613	-2.30127944776365 
614	-1.19062944794867 
615	-1.51351320618446 
616	-1.5791927044016 
617	-0.959072607766835 
618	-0.714122093097139 
619	-0.594202426129355 
620	-0.570222788630857 
621	-0.66275936143449 
622	-1.06657384177939 
623	-0.779416285883188 
624	 0.49527765352334 
625	-0.433206528794853 
626	-1.50922731625533 
627	-1.79435790716542 
628	-2.38369578462967 
629	-1.85453920753595 
630	-0.707221271161058 
631	-0.518456458241059 
632	-1.4192329560037 
633	-2.42969298736332 
634	-2.54141278886082 
635	-2.13029980520456 
636	-2.125981194952 
637	-2.31559288791469 
638	 0.519638557765056 
639	 0.257031400316114 
640	-2.3551499202411 
641	-1.53649858198975 
642	-1.96407939478932 
643	-2.85223366851317 
644	-2.3224836800614 
645	-1.62138789693319 
646	-0.56413041519437 
647	 0.507539778831817 
648	-0.68626896664136 
649	-1.3214575191756 
650	-0.814030565696269 
651	-0.66480316109624 
652	-0.338623938584029 
653	-4.07608958508802E-02 
654	-0.210320619468346 
655	-1.54961301170263 
656	-1.49689387087378 
657	 0.847264701636528 
658	-0.312634453013238 
659	-0.516282466042157 
660	 0.856741681954675 
661	-0.625761547911737 
662	-1.41771129000123 
663	-1.04667082949164 
664	-0.356430851068309 
665	-0.656898653515772 
666	-1.02456991702086 
667	-0.718183003689377 
668	-1.61387756859995 
669	-1.74695040893498 
670	-0.81842225889869 
671	-1.51188692508492 
672	-1.54610284947184 
673	-0.920730723678649 
674	-0.745512589512666 
675	-0.436816131439668 
676	-0.256261209741371 
677	-0.543623696128181 
678	-1.39752937344 
679	-1.25949226383541 
680	-0.032845333015412 
681	-0.815817808615602 
682	-0.544990650694611 
683	 0.313919808364886 
684	-0.964665284581607 
685	-0.87783368403341 
686	-0.448541751534515 
687	-1.28586135811366 
688	-0.981763124525986 
689	-0.308864355595028 
690	 0.152461356719741 
691	 0.938398848102436 
692	 1.1829804251548 
693	 0.4585885765528 
694	-1.35018734574897 
695	-1.38997729394661 
696	-0.636833314678906 
697	-1.06133486858893 
698	-2.03013831727345 
699	-2.00093964964975 
700	-0.549817306262982 
701	-0.546661140035958 
702	 0.83740058183853 
703	 2.80719662198327 
704	 0.841197294938604 
705	-0.351877918249404 
706	-0.727364652004115 
707	-1.5207162020213 
708	-0.50589781160926 
709	 0.417506528798718 
710	-5.39133467481516E-02 
711	-4.55537763708106E-02 
712	 0.347189113565806 
713	 0.506535115463712 
714	-0.970577183335365 
715	-1.34395515471079 
716	-0.768194872492404 
717	-0.551916703689558 
718	-1.33411258070167 
719	-1.31000586232955 
720	 0.225210135179354 
721	-0.867320601034932 
722	-1.66493373941466 
723	-1.11286332656336 
724	-0.357473750331338 
725	-0.516498453347428 
726	-1.13639700264233 
727	-1.13478892766118 
728	-1.78369170979449 
729	-1.7537287907898 
730	-0.460870607675395 
731	-1.36626341762965 
732	-1.51945589005503 
733	-0.041564737078847 
734	 1.36948393271118 
735	 0.569894787572504 
736	-1.318235634588 
737	-1.72637118990946 
738	-1.92060812165846 
739	-1.83389026821068 
740	-1.28003326325043 
741	-5.05546116437129E-02 
742	 9.81377716954764E-02 
743	-0.840127813491156 
744	-0.419954043382865 
745	-0.544069596598694 
746	-1.07981104004804 
747	-1.20161935461986 
748	-2.29810925990003 
749	-2.6853138961221 
750	-1.35395474382002 
751	-1.21586181300144 
752	-0.982511388786784 
753	-0.481970710391593 
754	-1.10201631346014 
755	-1.41636171366043 
756	-1.5958735699274 
757	-2.26021362275461 
758	-1.44728374720585 
759	-0.635042051245998 
760	-0.939870698719458 
761	-0.540585962510094 
762	-0.680111063023164 
763	-1.44583854731218 
764	-1.58588551606876 
765	-0.321722045646281 
766	 0.785917410026911 
767	-0.43853242865323 
768	-1.75169122400758 
769	-2.39111525165501 
770	-2.07088267768198 
771	-0.886987573793637 
772	-1.32075393920451 
773	-2.67045448399134 
774	-0.792626145483846 
775	-0.620038636420528 
776	-1.75233082488422 
777	-2.10523737273816 
778	-1.16292602503525 
779	-0.712962555839276 
780	-1.57491931563792 
781	-1.62859834422911 
782	-1.15462457615561 
783	-0.776259587668537 
784	-1.49516840868437 
785	-0.391949321607705 
786	 0.516419298089937 
787	-1.10729204349093 
788	-0.451843717225833 
789	-0.642089524177632 
790	-2.59018670190225 
791	-1.24821155470201 
792	-0.659020574388524 
793	-1.4887214071621 
794	-2.35524270574665 
795	-0.656472190002816 
796	 0.979834273428541 
797	-9.58006443970175E-02 
798	-1.05689408448218 
799	-1.67562863327885 
800	-1.93386427006828 
801	-1.90100086396932 
802	-2.10763257471514 
803	-2.53221251505422 
804	-2.79163995330325 
805	-1.68873773984512 
806	-0.908504063117657 
807	-1.45591784819548 
808	-0.431320389562022 
809	-1.20196521807137 
810	-2.96904418734571 
811	-0.227317317037914 
812	 0.42645385411262 
813	-0.61575583833462 
814	-0.955427422800277 
815	-1.47282027965824 
816	-1.92256753885733 
817	-1.93421042962044 
818	-0.839733806186397 
819	-0.237473839616066 
820	-0.510742111672119 
821	-1.16802352020712 
822	-0.604601619495035 
823	-0.152976136457826 
824	-1.14409846776 
825	-2.02669004312297 
826	-1.3621591803243 
827	 0.306652679573994 
828	-0.516647186914716 
829	-1.31099838562052 
830	-1.2878230948313 
831	-0.445218038157957 
832	-0.37130203192785 
833	 0.504702803825798 
834	 2.12534218635659 
835	-1.53682188193009 
836	-3.09289137312189 
837	-1.86485203217592 
838	-2.43735712732472 
839	-1.5235101232421 
840	-0.911168928186452 
841	-2.35544984015755 
842	-1.52104646800278 
843	-1.04883316191544 
844	-1.60801542387401 
845	-0.241412021744865 
846	-0.238700835606658 
847	-0.971097035616746 
848	-0.572406244477552 
849	-2.00420819360952 
850	-3.10228726748901 
851	-2.33367816895541 
852	-1.16396741784696 
853	-0.646204683749986 
854	-0.568752780341373 
855	 0.222597165160901 
856	-0.217003551765361 
857	-1.38463430035085 
858	-2.23618195768934 
859	-2.08111793252094 
860	-1.04852344698467 
861	 0.24475837979976 
862	 0.616499422920577 
863	-0.553077091879508 
864	-1.83109811303754 
865	-1.50672867814646 
866	-1.98018033919327 
867	-2.2856325720045 
868	-1.72046850699651 
869	-0.370368556237884 
870	-0.907343039554745 
871	-2.18831340894606 
872	-1.36694602006335 
873	-2.71858233716075 
874	-3.5765279140008 
875	-2.0714415428748 
876	-1.65079534796508 
877	-1.23369509092709 
878	-0.77339108611879 
879	-1.00710279835564 
880	-2.44979013190948 
881	-3.1714282714579 
882	-1.74536866475186 
883	-0.937651144534297 
884	-0.917489789091135 
885	-1.21117269816031 
886	-0.630007210745458 
887	-1.81810273247958 
888	-3.02909118723654 
889	-1.91005170026 
890	-0.76510390365973 
891	-0.576051882638266 
892	-1.07944217194253 
893	-2.24375882045164E-03 
894	-1.53005286310089 
895	-3.50106117759819 
896	-1.95620874021737 
897	 6.02608721950188E-02 
898	 0.730257360199349 
899	-0.469496040082033 
900	-2.1156750610186 
901	-2.2073757592419 
902	-1.48659151365424 
903	-1.94377698385878 
904	-1.90203539732528 
905	-1.68929769682131 
906	-1.62846281852907 
907	-1.20470460654859 
908	-2.62747323688419 
909	-4.29809713007668 
910	-2.71607201234211 
911	-2.07594531614623 
912	-1.49273462261089 
913	-0.404903462210775 
914	-1.54492747166153 
915	-2.37062495537466 
916	-2.35993768317215 
917	-2.33727754324908 
918	-2.18617620996603 
919	-2.02027038586792 
920	-1.95531327198175 
921	-2.04926611836541 
922	-2.36604990335881 
923	-2.13754015959917 
924	-0.232436094185951 
925	-0.994264359532888 
926	-1.93626410703261 
927	-1.06440985381669 
928	-2.17363987045564 
929	-2.59669785269943 
930	-1.95552727122817 
931	-1.55624319074088 
932	-0.936500573489658 
933	-0.469280187504849 
934	-0.538904374948948 
935	-1.24026658855105 
936	-1.97464247413703 
937	-2.34997520181245 
938	-2.17150090529448 
939	-1.740289012552 
940	-1.7086758053568 
941	-2.2660706903277 
942	-2.19694270346626 
943	-2.27474127378586 
944	-1.77811450462927 
945	 0.515534459575882 
946	-0.98197197041391 
947	-2.01514621301845 
948	-3.49849166051578E-02 
949	-0.684991803772659 
950	-1.52370512988121 
951	-1.16847944767209 
952	 0.8103256182928 
953	 2.22610495632999E-02 
954	-1.41745126761806 
955	-1.46448119736952 
956	 0.31274494984013 
957	 0.294231435075623 
958	-0.939671097298547 
959	-1.19101223508883 
960	-1.85221829523228 
961	-2.23898056489415 
962	-1.76746422566061 
963	-0.109949242120452 
964	-0.840698834249916 
965	-2.06792002981252 
966	-5.55061217172582 
967	-6.88500658284801 
968	-2.93620796860635 
969	-1.88346785406161 
970	-0.859187512561389 
971	 0.883947438287494 
972	 1.63665251965006 
973	 2.27503266038351 
974	 5.32623648481646 
975	 7.01687651361463 
976	 7.79009031998954 
977	 8.13037029264763 
978	 6.11855027233071 
979	 3.4716168892591 
980	 0.655704153279829 
981	-3.19218634443653 
982	-3.38141143575895 
983	-3.72772387791654 
984	-4.13285591232847 
985	-1.98792085807076 
986	-0.639216610403909 
987	 2.6092897810955 
988	 2.53666756731992 
989	-0.79422978351793 
990	-1.51238507221792 
991	-3.62293807482346 
992	-3.78307599994501 
993	-1.94206133139446 
994	 3.56830978663489 
995	 1.64888450715463 
996	 1.53789158272649 
997	 3.15042484161392 
998	-2.2314900229947 
999	-0.390628014437431 
1000	 1.79184625153546 
1001	-3.02195816925163 
1002	-1.42482606616725 
1003	 1.59987451404462 
1004	 0.444976667284266 
1005	 0.211892621601415 
1006	 1.74205480501268 
1007	 1.4779380623843 
1008	-1.58483913593196 
1009	-0.700500031734428 
1010	-0.297404980978141 
1011	-1.45914560617312 
1012	-2.50310096172963 
1013	-3.3631094040574 
1014	-4.21743011364944 
1015	-2.20646914644574 
1016	-1.0318269333095 
1017	-3.33607060208735 
1018	-2.72502842949804 
1019	-1.15216546115614 
1020	 1.5613212919446 
1021	 4.46758136841885 
1022	 5.29052835747058 
1023	 5.89024784162548 
1024	 5.47405195133709 
1025	 2.97334718604428 
1026	 2.89642560560895 
1027	 3.45478235785493 
1028	 2.24169587096401 
1029	 2.45555357874664 
1030	 1.24057175818696 
1031	 0.440641560159755 
1032	 1.6346187189421 
1033	 2.70423962317361 
1034	 3.21829606181731 
1035	 1.733513382866 
1036	-1.19014799698613 
1037	-2.00384533665337 
1038	-1.08662868105328 
1039	-5.83582534075138E-02 
1040	 0.705991005176034 
1041	 1.42550241812058 
1042	 1.95641651343497 
1043	 1.59720149861449 
1044	 3.39062424946142 
1045	 5.24067899677482 
1046	 7.11980818628604 
1047	 5.71089735157597 
1048	 2.42318075965314 
1049	-0.383179035853645 
1050	-2.57136584776252 
1051	-0.736313878263429 
1052	 2.77329601797698 
1053	 5.40774836289028 
1054	 7.21405625562979 
1055	 6.52567174654103 
1056	 3.50428994941253 
1057	 2.67380242999959 
1058	 2.99043978226766 
1059	 1.59687732577388 
1060	 0.565429533608973 
1061	-4.18289969086769E-02 
1062	-1.62303292540761 
1063	-4.96343577225558 
1064	-2.4014448796957 
1065	-0.381520572472904 
1066	-1.25437805239862 
1067	 1.89019906964497 
1068	 3.49490795476433 
1069	 2.53423034120735 
1070	 3.94068818014102 
1071	 6.51581805529891 
1072	 8.57568405669268 
1073	 8.54688055132179 
1074	 8.3549872486682 
1075	 7.60899325356814 
1076	 6.32595804975114 
1077	 3.16490356099616 
1078	 2.65337619253625 
1079	 3.22069882238562 
1080	 3.19234807178488 
1081	 4.21210649877084 
1082	 4.98597913311218 
1083	 5.35631344843987 
1084	 5.75959523054435 
1085	 7.34419997175176 
1086	 7.97358303450485 
1087	 7.20838716917646 
1088	 7.2187217973133 
1089	 7.93370174412575 
1090	 7.2737695391516 
1091	 6.32293310277883 
1092	 6.29998674255101 
1093	 4.11353158629803 
1094	-1.37133917922707 
1095	-3.32154662979111 
1096	-6.50281694642603 
1097	-6.03008537548524 
1098	-0.104717631830844 
1099	 2.04958518793172 
1100	 3.61892466628215 
1101	 6.44695091434389 
1102	 10.3233326979646 
1103	 10.873245086386 
1104	 10.8686347399153 
1105	 10.4761986302064 
1106	 6.72498295573604 
1107	 4.08008600003077 
1108	 2.89650382721296 
1109	 3.72713386794361 
1110	 3.45137419172 
1111	 2.28433543277547 
1112	 1.94183104036521 
1113	 2.80999278876882 
1114	 2.72011357263412 
1115	 2.17202035832884 
1116	 2.33619710731413 
1117	 2.12723842456245 
1118	 2.34351882354358 
1119	 3.11814766259473 
1120	 4.28465663121237 
1121	 5.84622198570997 
1122	 7.33892884874232 
1123	 10.2747247532114 
1124	 11.494797637384 
1125	 10.8858948583814 
1126	 11.8332224880248 
1127	 11.5713534687646 
1128	 10.0403881899272 
1129	 9.49052718415333 
1130	 9.47068887434157 
1131	 8.48335557295542 
1132	 7.28668481926791 
1133	 5.86670821015321 
1134	 2.91626393474452 
1135	 2.37136520592957 
1136	 3.10370762896401 
1137	 3.12316416132472 
1138	 3.76765701794846 
1139	 4.89682021953362 
1140	 7.47925460757802 
1141	 7.22359979601764 
1142	 5.04872005099564 
1143	 4.81747296553892 
1144	 2.77469875671888 
1145	 2.0381983774894 
1146	 4.55730073518891 
1147	 6.07104783290849 
1148	 7.2600309992327 
1149	 7.65453930533013 
1150	 8.17075148599575 
1151	 9.32128232494855 
1152	 8.75478052791565 
1153	 6.27965354370595 
1154	 6.02290646999229 
1155	 5.53294758683048 
1156	 5.93832821027686 
1157	 8.44015964393022 
1158	 9.63331418760506 
1159	 11.466475805579 
1160	 11.2885043945399 
1161	 9.54065178346907 
1162	 8.02588182406622 
1163	 4.85057595263281 
1164	 2.56239625852434 
1165	 0.303282099620165 
1166	-0.753891470949813 
1167	-1.08206745820746 
1168	-1.80497510435124 
1169	 8.74624302491361E-02 
1170	 2.36964606018003 
1171	 3.23722561597207 
1172	 4.53908256204346 
1173	 4.18933781574657 
1174	 1.21051077304807 
1175	 1.0013577738609 
1176	 1.48608793424714 
1177	 1.69439214262775 
1178	 2.83243093224946 
1179	 4.16852528052453 
1180	 5.18161050476202 
1181	 6.63146927650486 
1182	 9.45809389749505 
1183	 11.2054649558553 
1184	 12.6947535515718 
1185	 13.3287294844261 
1186	 14.5514131154446 
1187	 13.247828872844 
1188	 7.76509279055009 
1189	 6.05561915308499 
1190	 4.20110274658288 
1191	 3.43385717865672 
1192	 7.49757307576103 
1193	 8.69156894643564 
1194	 8.62595334111141 
1195	 8.99832168765916 
1196	 8.49128560918569 
1197	 5.82374874430659 
1198	 7.08269865914055 
1199	 10.9366831383524 
1200	 12.0348171358777 
1201	 14.2016640921403 
1202	 15.1878739314505 
1203	 12.9514882771234 
1204	 12.4244509501744 
1205	 14.4677370431637 
1206	 13.5730339072452 
1207	 9.13334922189678 
1208	 8.59356209558467 
1209	 9.75060042783185 
1210	 9.48165409089653 
1211	 10.0008684095958 
1212	 11.7482331046392 
1213	 12.1393250468315 
1214	 10.8612132762779 
1215	 12.0514877126871 
1216	 13.3651909880976 
1217	 13.8699076161082 
1218	 14.9507470857188 
1219	 14.1877527335538 
1220	 14.5782757008566 
1221	 15.2362282123425 
1222	 15.4986690556815 
1223	 14.9683613572086 
1224	 13.8355483006817 
1225	 15.5964039090325 
1226	 18.6142986220417 
1227	 19.4408324760079 
1228	 23.1735468773178 
1229	 22.8099065755664 
1230	 16.0207032804696 
1231	 14.3131174229735 
1232	 15.0331266922546 
1233	 15.1102275132677 
1234	 16.8822814292613 
1235	 17.2065640895424 
1236	 16.4669863852328 
1237	 14.2595689625386 
1238	 16.70187050636 
1239	 19.3224587953926 
1240	 21.1747881261766 
1241	 21.1736050562936 
1242	 16.2339755510774 
1243	 11.8283974594041 
1244	 8.37222759061818 
1245	 6.56324135318584 
1246	 9.4686505078395 
1247	 11.0094142967543 
1248	 12.0952943972752 
1249	 14.3500794285395 
1250	 14.4974961781037 
1251	 13.100520169135 
1252	 11.3434133671787 
1253	 6.62556545439068 
1254	 6.12695734513649 
1255	 6.26581143700079 
1256	 6.90221183336712 
1257	 11.3430824283592 
1258	 13.562943093526 
1259	 14.6034699639463 
1260	 15.1854055815375 
1261	 15.0105302340266 
1262	 16.5999911240641 
1263	 14.914730159186 
1264	 16.1372122533228 
1265	 16.1607525531329 
1266	 14.8690595713674 
1267	 14.4679291278773 
1268	 13.1920529483532 
1269	 14.7895928380977 
1270	 15.0318856255064 
1271	 15.9606710421131 
1272	 21.0248915713373 
1273	 23.4735243469229 
1274	 23.9822053397473 
1275	 23.137708752479 
1276	 17.570644004298 
1277	 13.5239801895999 
1278	 13.1229449243714 
1279	 11.9770269482612 
1280	 13.3704506732098 
1281	 13.246709926954 
1282	 10.0756467952437 
1283	 9.95667437729136 
1284	 11.5303963809622 
1285	 13.2484434951839 
1286	 19.7664664833301 
1287	 20.598114389874 
1288	 18.5532949894334 
1289	 15.85793629911 
1290	 12.3842929962403 
1291	 11.1933129885553 
1292	 15.4223950491749 
1293	 18.7841805510804 
1294	 19.9877271848176 
1295	 20.1817191136909 
1296	 19.5807820408579 
1297	 19.7896551875415 
1298	 21.4136421591926 
1299	 23.5244521376477 
1300	 23.5392614898309 
1301	 21.7544659920276 
1302	 19.4507265480452 
1303	 17.0225325159465 
1304	 16.3346842193981 
1305	 17.1330065421531 
1306	 17.4240952905316 
1307	 16.5709088442258 
1308	 16.348087690853 
1309	 15.9246257550785 
1310	 14.5840413436415 
1311	 14.4425522331668 
1312	 15.0380988543949 
1313	 16.1875085615139 
1314	 15.8199723384583 
1315	 15.6298969844744 
1316	 15.5401771784221 
1317	 13.4207737442685 
1318	 12.7806030697634 
1319	 12.3948293719227 
1320	 16.2720301051629 
1321	 19.0734715303581 
1322	 21.6690492713316 
1323	 27.6989272018194 
1324	 27.4996232704451 
1325	 25.3181045960122 
1326	 25.4264175835163 
1327	 21.6450931157499 
1328	 20.5746504138827 
1329	 20.917186223339 
1330	 17.4282605132818 
1331	 16.0384363672252 
1332	 16.8726070019507 
1333	 18.1704095907769 
1334	 20.3003316219195 
1335	 20.3997891151052 
1336	 17.5767131073108 
1337	 14.0076223338959 
1338	 13.0774635731966 
1339	 12.8244617033126 
1340	 12.3544222302747 
1341	 15.7150738314154 
1342	 17.7719865282226 
1343	 18.8110295674323 
1344	 21.8957710739149 
1345	 20.4579347599294 
1346	 18.1018077749916 
1347	 17.8884163324493 
1348	 18.9012150702828 
1349	 19.1500132830977 
1350	 20.537396919436 
1351	 20.4109394388611 
1352	 18.8065512594406 
1353	 17.9646964136764 
1354	 16.9264352582227 
1355	 17.0943820545433 
1356	 18.0355894779975 
1357	 17.250431927839 
1358	 15.8529837609533 
1359	 18.5969690198203 
1360	 20.5770863692025 
1361	 21.5993973519556 
1362	 24.0306006080874 
1363	 22.1605065167926 
1364	 19.1374959774534 
1365	 17.6766346991351 
1366	 13.8663925987799 
1367	 12.0776752194312 
1368	 13.1690154006428 
1369	 13.8913328559045 
1370	 14.6976681945457 
1371	 17.1769814287154 
1372	 17.4149830350548 
1373	 14.7683986304331 
1374	 16.4248838631521 
1375	 17.9749183111978 
1376	 18.6168836703255 
1377	 20.7571912661851 
1378	 18.5039644081808 
1379	 15.0465135443804 
1380	 12.7638089389616 
1381	 9.64079423300021 
1382	 9.38059887416595 
1383	 10.2310973775114 
1384	 11.0538745509362 
1385	 13.9672477812639 
1386	 16.6327031853967 
1387	 19.9283712358078 
1388	 20.8472817264631 
1389	 19.1330956492289 
1390	 19.3047383512569 
1391	 19.4901368654663 
1392	 18.7055652760391 
1393	 18.8473189953194 
1394	 19.1025908725651 
1395	 17.512218714735 
1396	 19.7474479605172 
1397	 22.7530130194383 
1398	 23.4270076769103 
1399	 24.0398994789639 
1400	 21.8845675905718 
1401	 19.2450898827501 
1402	 17.866765594659 
1403	 17.5982873006946 
1404	 16.5680917926796 
1405	 16.8553523349532 
1406	 19.2582542837233 
1407	 20.7778671537826 
1408	 20.3224949356644 
1409	 17.5292845134141 
1410	 16.3290748399707 
1411	 15.7438014536127 
1412	 17.3845761951652 
1413	 21.0849301328812 
1414	 21.1848906056246 
1415	 20.6675001251044 
1416	 20.6821245518991 
1417	 22.0552622218142 
1418	 25.9096839194734 
1419	 27.233178335991 
1420	 27.6474341744668 
1421	 26.0222318932843 
1422	 20.3263791517995 
1423	 18.5419541767557 
1424	 19.0161997735742 
1425	 18.4949246912193 
1426	 20.6873790736438 
1427	 20.7053385453217 
1428	 19.2473210978477 
1429	 19.2140758665438 
1430	 17.5573291252213 
1431	 17.1317655153081 
1432	 18.1929163258132 
1433	 20.6727319616773 
1434	 22.6485144642373 
1435	 25.2062459087833 
1436	 28.6365843575647 
1437	 28.6661782074518 
1438	 27.7374800778496 
1439	 24.2477511798859 
1440	 20.2219843096987 
1441	 17.4656597153009 
1442	 15.768124279183 
1443	 18.3076938296683 
1444	 20.3781993904162 
1445	 21.9348833621997 
1446	 24.5842933743113 
1447	 25.5453610098506 
1448	 25.1963953928341 
1449	 24.7236396327478 
1450	 23.3245164288944 
1451	 21.2180914296484 
1452	 17.918906880354 
1453	 16.3402460455579 
1454	 15.0095000049866 
1455	 14.3753668348898 
1456	 17.5881672122415 
1457	 20.2711207803276 
1458	 21.6777572187622 
1459	 22.7924688780401 
1460	 21.3853773113813 
1461	 18.6433905451598 
1462	 14.9199540045833 
1463	 12.1844803824092 
1464	 12.556785491685 
1465	 12.7892371005743 
1466	 13.8046773365216 
1467	 18.3638112593605 
1468	 20.008698611266 
1469	 19.1444813168833 
1470	 19.8747992540306 
1471	 18.4845767142374 
1472	 17.5754929012522 
1473	 19.5510496907681 
1474	 21.2676807336395 
1475	 21.0759546514039 
1476	 21.2942425255409 
1477	 22.2818680266073 
1478	 23.1352460142577 
1479	 24.8510028821512 
1480	 25.699630171716 
1481	 24.6499112059803 
1482	 22.9578960363999 
1483	 21.9471921140435 
1484	 21.0805880801907 
1485	 18.9791672663143 
1486	 17.3507305805025 
1487	 17.5184075424633 
1488	 18.4736795808279 
1489	 22.9173835232887 
1490	 26.5184281640647 
1491	 26.7894362562171 
1492	 26.845161614432 
1493	 23.6186952591614 
1494	 21.0986287011853 
1495	 22.327414818025 
1496	 24.1137503914734 
1497	 25.777584937479 
1498	 27.3632903715137 
1499	 26.9307237359962 
1500	 24.0840638937843 
1501	 22.5895640525092 
1502	 24.683839218906 
1503	 26.9565250683665 
1504	 28.6553052806548 
1505	 32.6870098899898 
1506	 31.744043492503 
1507	 28.2388816705811 
1508	 25.2445607146444 
1509	 19.1958263453798 
1510	 16.6706915141264 
1511	 13.9528037828213 
1512	 14.4577781004557 
1513	 17.52652247389 
1514	 17.7128693443698 
1515	 22.3874308582246 
1516	 24.8655876447795 
1517	 24.9822100138152 
1518	 25.0656415546024 
1519	 20.6750566944011 
1520	 20.3658973615188 
1521	 22.5931068404993 
1522	 22.5038229211822 
1523	 24.4612524611981 
1524	 23.426259715162 
1525	 20.2989181058483 
1526	 20.8412219708417 
1527	 21.3713308524578 
1528	 20.6063256549433 
1529	 21.5853473934866 
1530	 22.9369622218758 
1531	 23.1077041897063 
1532	 24.1341104300591 
1533	 23.2094892849365 
1534	 21.2194362702904 
1535	 21.825665348707 
1536	 22.4289206203109 
1537	 24.0803641691513 
1538	 26.3177087251497 
1539	 26.6854297673382 
1540	 27.8719210566349 
1541	 29.0968082675427 
1542	 28.2635684545505 
1543	 26.7305022375993 
1544	 24.8553045649845 
1545	 23.5506168105803 
1546	 22.6181063787332 
1547	 21.1659326941058 
1548	 18.7338709226708 
1549	 16.8055112505524 
1550	 17.3317728247287 
1551	 18.9066979248125 
1552	 24.1861464939256 
1553	 30.134743233263 
1554	 30.7618611417432 
1555	 29.4645802835354 
1556	 26.6191309151681 
1557	 22.7363442291814 
1558	 22.8683493897099 
1559	 24.1619921227603 
1560	 23.1581299685558 
1561	 20.9395885462792 
1562	 19.0254018051625 
1563	 18.1450760425859 
1564	 17.2413702056468 
1565	 18.9651870462901 
1566	 19.4370256391427 
1567	 16.5536240871429 
1568	 18.0662407027275 
1569	 20.8336740537491 
1570	 23.2350816303992 
1571	 27.4457055473354 
1572	 27.5883517283028 
1573	 24.4676136932763 
1574	 20.4321667882906 
1575	 18.8241067400621 
1576	 20.3152820369315 
1577	 21.915308813822 
1578	 27.3375272371763 
1579	 31.5892935159548 
1580	 32.6415305596008 
1581	 33.9907715034615 
1582	 31.7859762815719 
1583	 28.8115174579059 
1584	 27.4125127855284 
1585	 26.6151812122778 
1586	 26.9377724559453 
1587	 26.3595197136988 
1588	 26.5147100723327 
1589	 26.9981734402831 
1590	 24.2768657972478 
1591	 22.6120669199686 
1592	 21.369292860401 
1593	 17.206039161592 
1594	 14.7087910022826 
1595	 13.9285186763017 
1596	 15.0975586584103 
1597	 17.1662305299424 
1598	 21.045813440813 
1599	 25.118687124293 
1600	 24.6881286671441 
1601	 23.7877542284914 
1602	 19.8567393174611 
1603	 16.6793815049483 
1604	 17.5796196649139 
1605	 19.8325644370318 
1606	 24.4330146168525 
1607	 28.4042830847792 
1608	 29.9087797808331 
1609	 26.6845026365845 
1610	 23.8434915860317 
1611	 23.3967606972403 
1612	 22.404122148168 
1613	 22.778306429283 
1614	 23.2098966251351 
1615	 22.0649659280761 
1616	 20.803042255759 
1617	 21.5063376941909 
1618	 21.8428837595477 
1619	 22.0639182774035 
1620	 22.329868965239 
1621	 21.2416292227379 
1622	 21.4584209697257 
1623	 19.9009986454535 
1624	 16.6912645667409 
1625	 17.8670633257803 
1626	 18.8979903049697 
1627	 18.4054031718292 
1628	 21.2510296443802 
1629	 22.2850638672045 
1630	 21.6536984153433 
1631	 22.5957700134434 
1632	 21.9282724497072 
1633	 19.8487533500271 
1634	 17.9365780359252 
1635	 16.3323448576207 
1636	 14.2612480041602 
1637	 12.6830970866304 
1638	 11.1685759101578 
1639	 10.4575721170277 
1640	 10.766142184058 
1641	 10.8434509464625 
1642	 10.878791322882 
1643	 11.0945968365292 
1644	 12.0358165526168 
1645	 12.2714140970921 
1646	 11.5174670144528 
1647	 12.8324347037656 
1648	 15.0503045178327 
1649	 16.4218183089528 
1650	 19.9283245595423 
1651	 20.465036346 
1652	 18.5235093155987 
1653	 17.3578453545858 
1654	 15.4182418370488 
1655	 13.4523401058735 
1656	 10.8203697736681 
1657	 9.31881242269711 
1658	 8.74284426603059 
1659	 6.465502589869 
1660	 3.44821574222669 
1661	 1.75652238297171 
1662	-1.2404514932795 
1663	-1.78727631031457 
1664	 1.18063651063543 
1665	 1.82347748812168 
1666	 1.91274669752352 
1667	 1.58631838208953 
1668	 4.61624435040043E-02 
1669	-0.289729730114871 
1670	-0.306936914965864 
1671	 0.272180899990005 
1672	 2.75790979901913 
1673	 2.05734336418043 
1674	-1.07336468557712 
1675	-0.853503539607427 
1676	-0.790012158854431 
1677	-0.734106265752635 
1678	 1.60571119177826 
1679	 3.3457404200571 
1680	 3.61441503630108 
1681	 5.04655917858024 
1682	 9.16472127993762 
1683	 8.33319519267474 
1684	 6.30627267712015 
1685	 3.93737209850094 
1686	 1.20473208146994 
1687	-0.538310608205655 
1688	-0.964605682265713 
1689	 1.15199620035362 
1690	 1.64100631775007 
1691	 2.05778342028175 
1692	 2.46902945022134 
1693	 1.60005141004106 
1694	 1.19086929089984 
1695	 0.362884159162314 
1696	 1.25132164338484 
1697	 3.22184631849676 
1698	 5.08804375397483 
1699	 8.9294804362583 
1700	 11.5203383348892 
1701	 14.5450002496806 
1702	 14.7423944730581 
1703	 12.6124732315838 
1704	 11.3611190112534 
1705	 8.59236266186565 
1706	 5.70617981711136 
1707	 2.96410047887825 
1708	 0.928831458048348 
1709	-2.96319925476723 
1710	-3.61275816825692 
1711	-0.796754890645527 
1712	-7.98605563877611E-03 
1713	 1.54629009224803 
1714	 1.80215114775587 
1715	 0.681973842389269 
1716	 0.155272342366204 
1717	-0.190458887034866 
1718	-1.38016132876226 
1719	-3.29525935333355 
1720	-3.99232862953941 
1721	-5.78348922841665 
1722	-4.27394472219283 
1723	 0.926947740103158 
1724	-5.33354897727207E-02 
1725	-2.28403268391117 
1726	-2.265554172546 
1727	-4.73577157250177 
1728	-1.57994518129885 
1729	 0.832312509405382 
1730	 0.373132630682503 
1731	 1.65248748145708 
1732	 4.376600204005 
1733	 5.08061938771637 
1734	 5.79840646225945 
1735	 4.03758337565706 
1736	-3.02419138283393 
1737	-4.88023504529153 
1738	-5.13652436177894 
1739	-5.3548444784852 
1740	-1.50212148348511 
1741	 3.95971648562217E-02 
1742	-0.166249521646182 
1743	-0.910403172157689 
1744	-2.68737045878829 
1745	-3.03316920847243 
1746	-3.79583577389975 
1747	-3.94341754366029 
1748	-3.00136851812644 
1749	-1.28915788843409 
1750	 1.13373157613437 
1751	 2.81838115473921 
1752	 5.87371837810032 
1753	 6.80484866836845 
1754	 5.29474468994342 
1755	 5.18170740888729 
1756	 8.23237884977291 
1757	 11.3835540249062 
1758	 13.3115332060036 
1759	 15.2896063276023 
1760	 24.6833031939645 
1761	 29.008252890724 
1762	 15.3373912708716 
1763	 4.92059826714246 
1764	 6.73506873543398 
1765	 15.7366610146513 
1766	 16.942465400091 
1767	 30.7301330602677 
1768	 32.7186214038866 
1769	 27.007181301647 
1770	 6.68599429883231 
1771	-4.44062568058894 
1772	-1.2248345773478 
1773	-2.05276876537178 
1774	-3.20455067814487 
1775	 1.7033283395437 
1776	 14.1033725636866 
1777	 17.5985779138677 
1778	 19.8008981007826 
1779	 24.9404300200943 
1780	 23.9529510828971 
1781	 19.6323596517234 
1782	 19.6489800422586 
1783	 26.1494553492801 
1784	 26.3529877887448 
1785	 27.5974670021122 
1786	 22.9395369482911 
1787	 4.14944136891097 
1788	 4.33460859355854 
1789	 22.7133253381268 
1790	 24.5181781641195 
1791	 34.7100441697856 
1792	 33.3431487814626 
1793	 10.3650225003683 
1794	 4.26878601520355 
1795	 3.27265668216265 
1796	 16.2882554398617 
1797	 30.9701546477892 
1798	 34.059301647948 
1799	 25.4459476602945 
1800	 16.8555628077946 
1801	 7.54617055082432 
1802	 8.36340356754294 
1803	 5.90347269379835 
1804	 7.7254695284781 
1805	 8.39139301286155 
1806	 6.28873377352691 
1807	 6.05355923575731 
1808	 7.67026534446283 
1809	 18.533194223777 
1810	 16.7683132988194 
1811	 2.86570074703531 
1812	 0.314580218139721 
1813	-2.61067590169752 
1814	-1.210627233885 
1815	 18.1028595432987 
1816	 18.1620755809799 
1817	 11.5886132818954 
1818	-5.41307380169987 
1819	-18.0209477561552 
1820	-26.5389850455883 
1821	-20.1343809152982 
1822	 16.2769225385542 
1823	 23.3178778747771 
1824	 25.3517255813434 
1825	 26.3217467925754 
1826	 5.22000060821577 
1827	 0.270544833620178 
1828	 3.50296683896593 
1829	 11.2920182540702 
1830	 18.5516631042947 
1831	 34.9136439225171 
1832	 38.7547382825071 
1833	 40.6938619008585 
1834	 38.3704703162707 
1835	 19.5686254273245 
1836	 16.4128433521696 
1837	 22.1621687374358 
1838	 22.0298678740566 
1839	 24.79514794861 
1840	 34.6834190726522 
1841	 30.3883978545097 
1842	 11.5065288336112 
1843	 6.93323251873566 
1844	 3.79398997817792 
1845	-1.38819150798436 
1846	-3.71556074216167 
1847	-4.55642784871278 
1848	-8.0923251364976 
1849	-7.77484193212585 
1850	-12.3400932829452 
1851	-3.81580827901539 
1852	 2.28774800640672 
1853	 7.25934763832161 
1854	 10.7199824705924 
1855	 13.5873937628703 
1856	 22.2517417839125 
1857	 32.8025483154611 
1858	 45.6558474582578 
1859	 49.4430510294333 
1860	 53.8892291896423 
1861	 45.1642200486335 
1862	 30.4688114469104 
1863	 21.9885613449828 
1864	 17.8834084899554 
1865	 13.8139277308729 
1866	 6.83661547715095 
1867	 7.84004635933745 
1868	 19.0665885060976 
1869	 21.5713459900635 
1870	 24.8270560620382 
1871	 24.5703156345543 
1872	 16.7627976381683 
1873	 18.5031771303126 
1874	 28.5413366911454 
1875	 39.9111788532397 
1876	 45.7845429408735 
1877	 52.0965683140062 
1878	 55.7539341259221 
1879	 54.1457479984979 
1880	 40.6533345189672 
1881	 28.8349387378359 
1882	 19.247782079607 
1883	 4.78533738331536 
1884	 0.900838306506592 
1885	 7.6057423999803 
1886	 11.8411335145601 
1887	 11.2667105370948 
1888	 12.7707208091657 
1889	 6.42050357874107 
1890	-12.3434451784795 
1891	-23.8097562444296 
1892	-27.9931941917567 
1893	-27.5349130455099 
1894	-10.4210627170428 
1895	-5.79142637184668 
1896	-17.3686923994821 
1897	-17.6859019313791 
1898	-21.1927444461164 
1899	-19.8904320032995 
1900	-16.1021345493611 
1901	 5.8863382529951 
1902	 17.945358850426 
1903	 14.002743802488 
1904	 18.5991814126474 
1905	 11.8351126761506 
1906	 8.51921897319638 
1907	 16.1978854562048 
1908	 13.6615202057265 
1909	 5.63109098185793 
1910	 1.47507851301047 
1911	-8.4690851752087 
1912	-11.3530903783715 
1913	-11.968103909922 
1914	-4.6612801177143 
1915	 4.47691723888245 
1916	 11.0286544763612 
1917	 20.0802963818756 
1918	 24.4025305154605 
1919	 27.3255852555654 
1920	 26.6529783048789 
1921	 25.8649682427756 
1922	 24.5041398904079 
1923	 22.8031800148967 
1924	 21.0547179098205 
1925	 17.494273846513 
1926	 12.3449869444833 
1927	 0.827148510562742 
1928	-0.727930586691959 
1929	 7.25248809000795 
1930	 8.12971692733684 
1931	 12.451118042341 
1932	 14.9093681464172 
1933	 13.9603653261531 
1934	 10.3915365409198 
1935	 7.7974874129683 
1936	 5.43964990724809 
1937	-3.20789461191212 
1938	-7.23702805422189 
1939	-7.41990803530698 
1940	-7.36687317010441 
1941	-7.96612530102136 
1942	-11.7790455180794 
1943	-8.79118440159949 
1944	 0.406421611040187 
1945	 3.45593995446221 
1946	 10.4911988936948 
1947	 10.8065966760894 
1948	 2.45664328508979 
1949	-1.53836357371536 
1950	-5.97754272853942 
1951	-9.86887931438418 
1952	-6.06510857567728 
1953	-20.669975044792 
1954	-16.6889284699478 
1955	-8.98793674330866 
1956	 1.44782563084531 
1957	 30.7410018482744 
1958	 35.2711246601247 
1959	 24.8241585277673 
1960	 23.5828374456345 
1961	 15.0037152660123 
1962	 8.18035783420367 
1963	 6.89807950719844 
1964	 5.6386943891882 
1965	-0.132503022597533 
1966	-4.47911099464376 
1967	-6.78359751693869 
1968	-1.82319740732098 
1969	-4.25931222695195 
1970	-11.4302578458012 
1971	-14.9121522087207 
1972	-20.5838056408801 
1973	-21.9878667031925 
1974	-21.4494064087192 
1975	-18.5911646526314 
1976	-4.7394826568516 
1977	-2.82565512786492 
1978	-4.04443573018698 
1979	-11.2056798376665 
1980	-14.6665517561297 
1981	-26.5529262597922 
1982	-26.5704891760083 
1983	-16.6806205436362 
1984	-12.623268428158 
1985	-12.1858643128684 
1986	-4.8925315278966 
1987	 8.84338032235652 
1988	 15.9184736915885 
1989	 34.493361462603 
1990	 35.2477314107425 
1991	 17.1809255221303 
1992	 4.30224101713257 
1993	-10.9740481890917 
1994	-25.2492606938947 
1995	-29.5139755135211 
1996	-25.5381421943369 
1997	-20.3304066882104 
1998	-6.1603046744329 
1999	 2.22542888232338 
2000	 19.7617088276696 
2001	 24.3061736841712 
2002	 16.2796426606699 
2003	 12.8611215513134 
2004	 6.51399026282801 
2005	-6.02011650639054 
2006	-2.74117551335024 
2007	 2.10799576394478 
2008	 1.53066499599535 
2009	 6.55895918009885 
2010	 11.6635677994562 
2011	 15.0878877030035 
2012	 19.9649971398379 
2013	 33.3697063963474 
2014	 36.2707541675665 
2015	 30.0265238421509 
2016	 29.2477046515176 
2017	 25.9947405269741 
2018	 25.4465193368124 
2019	 29.5128464054987 
2020	 32.7603023273269 
2021	 31.3622453357104 
2022	 26.3363213355015 
2023	 23.1058437128364 
2024	 17.1330399440982 
2025	 14.3635650000292 
2026	 16.0560353942498 
2027	 16.0331179838947 
2028	 16.0421636337518 
2029	 14.4143631567539 
2030	 12.9980925671686 
2031	 8.84500337401705 
2032	-0.684869092424569 
2033	-3.99222721265214 
2034	-3.22670166767265 
2035	-12.7085470857627 
2036	-15.4792734428266 
2037	-10.813584177714 
2038	-8.39448383967052 
2039	 1.67198883377332 
2040	 4.84080010838507 
2041	 3.12889615092086 
2042	 4.77740807091173 
2043	 2.55909672800078 
2044	 3.40027710816232 
2045	 7.81714279063353 
2046	 12.1048997883044 
2047	 17.2884056951031 
2048	 20.6916070536471 
2049	 25.0430863926025 
2050	 33.7797048322145 
2051	 23.6706025600372 
2052	 17.3348047817985 
2053	 10.1104284264243 
2054	-1.3925732398942 
2055	 1.54323047799159 
2056	 3.58393779432865 
2057	 6.61495883911693 
2058	 2.96121438386014 
2059	 1.34174181516764 
2060	-2.62966642729775 
2061	-2.25837162739434 
2062	 3.91081735222173 
2063	 6.55808429962772 
2064	 10.909038579076 
2065	 3.12797329799361 
2066	 8.79615287675919 
2067	 10.9098681591682 
2068	 13.6125743161982 
2069	 24.0656816315147 
2070	 18.4197217999206 
2071	 6.21603717231601 
2072	-6.61119559863948 
2073	-18.7022404547508 
2074	-19.8987796842292 
2075	-15.7913775830382 
2076	-15.388294080412 
2077	-7.83189150580871 
2078	-8.21592235833389 
2079	-24.4609493139529 
2080	-25.3901716307148 
2081	-18.5974222372031 
2082	-16.4234830927681 
2083	-11.3688431377148 
2084	 9.93496341279739 
2085	 18.0242355718193 
2086	 15.8305852616957 
2087	 11.327590348696 
2088	 4.51883407968524 
2089	-3.31519772444897 
2090	-3.27782500798396 
2091	 1.56177854476076 
2092	 3.6132610113677 
2093	 7.35713384952154 
2094	 4.19218759386887 
2095	 3.00690530854893 
2096	 4.22770101705232 
2097	 3.84484295018234 
2098	 3.17008712446621 
2099	-3.10718546557993 
2100	-8.88351721074639 
2101	-16.9461987991982 
2102	-35.170691030303 
2103	-32.763084494685 
2104	-27.080971369837 
2105	-21.3360298838578 
2106	-2.51606896885646 
2107	-3.42750298995458 
2108	-6.30826736222035 
2109	-7.49834815795614 
2110	-17.7772702830446 
2111	-12.6428176053517 
2112	-1.18613169906324 
2113	 6.0507872305435 
2114	 9.6114901978488 
2115	 12.655738528676 
2116	 12.0170151289516 
2117	 0.478549085041629 
2118	-1.02347061644995 
2119	 2.43655291882545 
2120	 1.80017002568766 
2121	 7.75151848695275 
2122	 24.3373130959706 
2123	 39.5930420295184 
2124	 50.4421177095454 
2125	 48.9670324112497 
2126	 34.8469406687977 
2127	 12.2466316708476 
2128	-2.005358204564 
2129	-17.1487079185906 
2130	-27.0567592990564 
2131	-29.3658993330141 
2132	-45.958644716418 
2133	-48.0739949740417 
2134	-39.5815497811152 
2135	-32.4274511584341 
2136	-17.2846353507123 
2137	-6.72551830810407 
2138	 3.11720714661258 
2139	 7.65634783971002 
2140	 6.87786948236338 
2141	 10.5320802385668 
2142	 5.97745295735786 
2143	 12.7483869703447 
2144	 18.1491682983596 
2145	 10.8457737873939 
2146	 16.5999012574903 
2147	 3.62579950263352 
2148	-10.6112859049041 
2149	-6.84085741402021 
2150	-19.9453185324508 
2151	-19.424342217298 
2152	-12.8681051482868 
2153	-25.0241183183538 
2154	-15.0161987108335 
2155	-3.72112553158431 
2156	-1.33089739957766 
2157	 13.3194669267914 
2158	 13.7516674456812 
2159	-3.69919834155561 
2160	-10.857969219968 
2161	-27.0141166380018 
2162	-30.4011475472988 
2163	-26.26692273958 
2164	-11.1587747487785 
2165	-2.17076111470382 
2166	 17.5296550024175 
2167	 38.8790551044028 
2168	 41.8113992493571 
2169	 51.4682619135429 
2170	 53.483973197331 
2171	 37.4715486436974 
2172	 31.9462654634067 
2173	 29.5570909681224 
2174	 27.5439003556624 
2175	 36.4387477139543 
2176	 46.9008448103325 
2177	 46.7940807986692 
2178	 43.0789931354758 
2179	 37.5690943841622 
2180	 32.3968939923192 
2181	 23.1196962833584 
2182	 14.185510295236 
2183	 9.06065181333194 
2184	 2.6120733903973 
2185	-3.23742321717627 
2186	-5.52466784134047 
2187	-6.37882262083943 
2188	-8.02152669838097 
2189	-3.23449901691688 
2190	-8.39031983439056E-02 
2191	 6.35782666864982 
2192	 7.22550965077271 
2193	 2.17836401061496 
2194	 8.9202190773932 
2195	 10.5048448062411 
2196	 17.9683219663821 
2197	 28.0761127623211 
2198	 21.1056244034742 
2199	 20.4156901753685 
2200	 12.0099294866461 
2201	-0.306896078124197 
2202	-1.57923805383057 
2203	-8.8519665930571 
2204	-7.39218983685875 
2205	-1.80989525515097 
2206	-8.56705198055738 
2207	-12.4080260996357 
2208	-18.8632796972466 
2209	-20.4211079491111 
2210	-19.5263180209419 
2211	-12.1479432704602 
2212	-10.899231713232 
2213	-11.8755557035835 
2214	-12.4304443086603 
2215	-14.7660218148938 
2216	-11.9622724064203 
2217	 0.765376365568059 
2218	 2.50922362588041 
2219	-1.65993865054316 
2220	-3.1539643125137 
2221	-8.3322767264933 
2222	-21.986074647795 
2223	-14.8522970047871 
2224	-11.9115875259686 
2225	-13.2556274990961 
2226	-2.55877719546093 
2227	-2.55882974146538 
2228	-4.98503041048872 
2229	-4.09124477936014 
2230	-1.23548866634496 
2231	-1.71797900089206 
2232	 2.53909096628076 
2233	 13.894051145015 
2234	 14.7064209281928 
2235	 30.9328572166454 
2236	 41.3241474486484 
2237	 34.5708906860583 
2238	 31.0710226205588 
2239	 7.66919903911259 
2240	-11.0479374125646 
2241	-23.7772978183592 
2242	-38.4240756799152 
2243	-47.203169693343 
2244	-58.2362999247296 
2245	-57.9960503177265 
2246	-45.5477212459516 
2247	-34.9606348720418 
2248	-9.18643516422804 
2249	 0.417335042461138 
2250	-3.3578353769409 
2251	 1.38157091757984 
2252	-0.659492972690543 
2253	 4.16757566836244 
2254	 25.6420751432564 
2255	 32.1529739666205 
2256	 31.2632482824617 
2257	 33.580499128271 
2258	 25.6305203965412 
2259	 16.3331081608348 
2260	 20.5494917354943 
2261	 7.80541651825455 
2262	-3.56819297316463 
2263	-7.64363862465858 
2264	-16.118320939002 
2265	-8.80857473319651 
2266	 2.774304437928 
2267	 14.7272542725953 
2268	 20.9640483191272 
2269	 22.2634575888493 
2270	 22.1263919615367 
2271	 21.2178010697409 
2272	 15.6106182855195 
2273	 8.04440451003592 
2274	 12.3991484603805 
2275	 9.80959312691593 
2276	 11.7963223375735 
2277	 20.2821733128383 
2278	 10.7557769586939 
2279	-0.260421696107619 
2280	 3.06238910829956 
2281	 2.89524282379233 
2282	 8.79030949742434 
2283	 15.6669447755525 
2284	 5.70951143573359 
2285	-5.8545705441217 
2286	-9.21054352953614 
2287	-6.81103225100989 
2288	-5.15420065855925 
2289	 2.04170946375263 
2290	 5.72234215910055 
2291	 6.41719267136534 
2292	 6.44063015588918 
2293	 7.23389520198515 
2294	 3.98841160351071 
2295	-5.93571818981231 
2296	-8.04127087062221 
2297	-4.49614675608676 
2298	-4.91317707708631 
2299	-2.24702715541918 
2300	-4.74901548376401 
2301	-20.5233001698608 
2302	-22.8535613855754 
2303	-15.8248043449631 
2304	-12.6710212550326 
2305	-1.57258450122758 
2306	 5.13457489874249 
2307	 6.31761100565454 
2308	 6.35741776741726 
2309	 7.54475815334101 
2310	 0.521269517001703 
2311	 0.712328947392921 
2312	-3.59128287096591 
2313	-9.06670863466688 
2314	-5.42771982431432 
2315	-9.9332219631393 
2316	-5.31864853585921 
2317	 9.53379254502277 
2318	 14.397886452291 
2319	 18.5026278071639 
2320	 18.4582861917565 
2321	 12.2932799238358 
2322	 13.3487084518774 
2323	 18.7541926940117 
2324	 30.8167372847683 
2325	 41.3193591900658 
2326	 41.1900719796677 
2327	 42.3137284249647 
2328	 32.5105003350463 
2329	 28.8949907862768 
2330	 36.0167749682596 
2331	 24.2165149444569 
2332	 17.8619614435118 
2333	-0.146828834525972 
2334	-27.343338658214 
2335	-31.8985283674259 
2336	-31.746553529014 
2337	-29.3171177393421 
2338	-20.2459709873389 
2339	-17.7101869042913 
2340	-24.5726991765515 
2341	-21.351234420193 
2342	-17.8992122668023 
2343	-16.145797970513 
2344	-10.9689647264349 
2345	-9.92161836199329 
2346	-11.7849998675278 
2347	-11.6517801542134 
2348	-7.08620021363088 
2349	-7.38875605407462 
2350	-5.10438928107755 
2351	-4.79054971641125 
2352	-7.17125454878788 
2353	 4.86646141294635 
2354	 14.8507687725858 
2355	 24.4137001715156 
2356	 35.3681723327024 
2357	 29.92722742412 
2358	 16.9872806482813 
2359	-0.910169828081251 
2360	-6.56906704617265 
2361	-6.20911917249342 
2362	-8.60350816894642 
2363	 2.47241090752902 
2364	-5.63251711580896 
2365	-19.6408189494874 
2366	-27.2604531492021 
2367	-34.8957594160243 
2368	-26.4295782160637 
2369	-17.9496882339927 
2370	-6.61407689048726 
2371	 3.917947264265 
2372	-0.395080119767869 
2373	-4.79156565250026 
2374	-0.350484183235507 
2375	-9.23637701973776 
2376	-14.8805838004053 
2377	-16.9850192222101 
2378	-28.9164884294676 
2379	-33.1740746329542 
2380	-35.6677380922927 
2381	-30.8001731207254 
2382	-26.2117881721566 
2383	-18.6783153146261 
2384	-13.2554685524882 
2385	-7.48158546347358 
2386	 2.56970564635981 
2387	-2.55864773645618 
2388	 5.53589861051598 
2389	 6.91091557327596 
2390	-2.68231426266792 
2391	 6.70358964780221 
2392	 6.23948992275428 
2393	 3.07188490765536 
2394	 7.73713218354992 
2395	 12.2022205003222 
2396	 11.9905607070431 
2397	 15.1654122900026 
2398	 17.474327983441 
2399	 6.84250209307313 
2400	 10.6916294313384 
2401	 19.1225229596506 
2402	 29.0761208710005 
2403	 39.6010717885943 
2404	 34.7587539458114 
2405	 27.56551474726 
2406	 15.9965525163406 
2407	 10.8055712420419 
2408	 17.4916671580596 
2409	 20.2674204699002 
2410	 18.2549561942641 
2411	 6.71553573918833 
2412	-5.83675277297196 
2413	-15.8508608825166 
2414	-21.233061093057 
2415	-18.1344312658217 
2416	-23.8157776978525 
2417	-14.3313207726622 
2418	-3.38770770845088 
2419	 6.58016896891766 
2420	 31.9397099433635 
2421	 39.7738682337517 
2422	 46.3188216473981 
2423	 47.3325958208853 
2424	 40.83378244657 
2425	 32.2950229285209 
2426	 12.7311719946643 
2427	-1.59050250690694 
2428	-7.9463075439123 
2429	-6.23272334400004 
2430	 4.10136069578138E-03 
2431	 11.7084346562169 
2432	 21.5417783428187 
2433	 24.7955205917734 
2434	 33.142236777201 
2435	 35.8581649253386 
2436	 27.6877936910825 
2437	 21.456483866746 
2438	 18.18101067231 
2439	 15.1577189277931 
2440	 13.5015791122029 
2441	 12.9498921361408 
2442	 12.575959186002 
2443	 17.2754852118396 
2444	 21.427696282647 
2445	 20.5049013333654 
2446	 14.1865669450816 
2447	 0.486096033749538 
2448	-6.69963093648281 
2449	-13.7742160413316 
2450	-18.1058591347258 
2451	-13.3879154325875 
2452	-15.4575607396065 
2453	-12.4230461793782 
2454	-1.31954447561539 
2455	-4.52518175588351 
2456	-1.57945799788449 
2457	 10.3929999418954 
2458	 9.95312940301967 
2459	 12.6596016275789 
2460	 7.94332188367593 
2461	 1.94764771629676 
2462	-4.54196999067631 
2463	-13.6960752300503 
2464	-18.5100776263956 
2465	-43.8036152406766 
2466	-53.7212605835443 
2467	-69.1017642806526 
2468	-54.9737756460682 
2469	-36.4965320292679 
2470	-23.2326908946956 
2471	-9.25414635948032 
2472	-6.20204807537362 
2473	-4.79654432154227 
2474	 4.06328942008186 
2475	 12.5196963814881 
2476	 17.0032352576038 
2477	 14.170943004075 
2478	 3.58600314286419 
2479	-3.30009858546927 
2480	-7.54091035929641 
2481	-9.4248358762025 
2482	-5.90758287479771 
2483	-9.43274129339099 
2484	-11.7246104191836 
2485	-12.0811324913557 
2486	-25.0313667635573 
2487	-33.193880706611 
2488	-31.4565077832462 
2489	-30.2589558653751 
2490	-14.7283524901619 
2491	 3.90169381311357 
2492	 9.8801602052271 
2493	 7.54013512848778 
2494	 2.07192206651569 
2495	-5.88444883518887 
2496	-14.3447741167638 
2497	-15.9881565704607 
2498	-18.2254800302172 
2499	-19.0104614646233 
2500	-17.4673740869975 
