Wavelength	Reference_GrayPLA00000.asd
350	 20.3613957361676 
351	 21.5549799868757 
352	 23.6033721819715 
353	 23.3326025791753 
354	 25.823156484239 
355	 28.1359856167751 
356	 27.7865556648112 
357	 27.3573092404321 
358	 28.2142458469769 
359	 30.3671532564437 
360	 32.5830277800309 
361	 32.9616103752532 
362	 33.359414275552 
363	 35.5380494199814 
364	 36.7870730441938 
365	 37.2450988848995 
366	 37.2140043208139 
367	 37.0168579392547 
368	 38.8177426219657 
369	 41.1960089356232 
370	 42.0125971889563 
371	 43.712651936654 
372	 44.7086105571526 
373	 44.4941629851234 
374	 45.1488721949287 
375	 46.4454586673946 
376	 48.207768685111 
377	 50.0854629630809 
378	 50.8842076930601 
379	 52.1717531787921 
380	 54.9017694011452 
381	 56.9913847131977 
382	 59.4849657253235 
383	 62.0610695007181 
384	 63.2678882174696 
385	 64.6635488429703 
386	 67.0323413908623 
387	 70.6580863550426 
388	 74.5002849070518 
389	 79.1799480736204 
390	 84.1485708718988 
391	 86.6725129978335 
392	 91.3033485345122 
393	 97.6114780659268 
394	 103.272184790298 
395	 109.020996480594 
396	 115.916278959866 
397	 124.292531585216 
398	 132.532240092082 
399	 141.469955430527 
400	 151.0025501473 
401	 160.420553072187 
402	 172.460200653451 
403	 186.562858028237 
404	 201.535446207061 
405	 217.637227215918 
406	 233.377995623481 
407	 249.805039051933 
408	 272.254433260307 
409	 294.898867631813 
410	 316.945052231999 
411	 339.768394072199 
412	 364.789559511246 
413	 391.045607446671 
414	 417.745872112315 
415	 445.659441201413 
416	 474.089645832501 
417	 503.026333239224 
418	 533.044419181408 
419	 561.364044207024 
420	 589.475094009082 
421	 619.358953240596 
422	 648.62535784528 
423	 676.549380018922 
424	 703.338869699721 
425	 730.915863899663 
426	 756.658096910876 
427	 781.091716134199 
428	 806.300710593636 
429	 830.680073617136 
430	 853.569221441766 
431	 875.126827426979 
432	 898.090529505905 
433	 918.785646060383 
434	 937.122453545035 
435	 957.849937601311 
436	 976.690072752552 
437	 993.782662326883 
438	 1010.88853938011 
439	 1028.85443905969 
440	 1045.85717256348 
441	 1060.97378369224 
442	 1076.49551870714 
443	 1092.39721820083 
444	 1108.4509180745 
445	 1124.17027959805 
446	 1140.78122600705 
447	 1156.26294401444 
448	 1168.80097430744 
449	 1184.23618315286 
450	 1199.12415716767 
451	 1211.54113361967 
452	 1224.04784067945 
453	 1237.9691039599 
454	 1252.72537579085 
455	 1266.330365668 
456	 1280.6862231012 
457	 1295.87607232057 
458	 1311.53219900435 
459	 1327.14171017399 
460	 1343.94669300211 
461	 1361.95484001604 
462	 1378.63144413709 
463	 1396.69194651424 
464	 1415.42947759346 
465	 1432.60631699336 
466	 1452.22164934209 
467	 1474.56013942185 
468	 1498.42172843588 
469	 1519.93734947192 
470	 1542.57180708997 
471	 1567.30681715002 
472	 1590.88851282591 
473	 1616.68774251707 
474	 1645.16160595092 
475	 1675.36697560409 
476	 1706.32164571346 
477	 1736.50649048433 
478	 1765.58619031702 
479	 1797.36626507523 
480	 1830.27816912752 
481	 1864.0993111395 
482	 1900.76366125086 
483	 1936.70661931332 
484	 1972.93020338357 
485	 2012.17476731301 
486	 2052.05712501578 
487	 2092.56208260204 
488	 2134.3671477629 
489	 2179.35644721077 
490	 2225.2828278238 
491	 2271.54170950893 
492	 2319.57424853538 
493	 2370.33410942259 
494	 2421.51807267412 
495	 2470.16081422785 
496	 2524.55310150408 
497	 2578.78820197459 
498	 2629.33548481813 
499	 2687.95864743128 
500	 2749.53139062895 
501	 2809.95890098163 
502	 2865.85507847404 
503	 2924.38086353941 
504	 2985.71371884094 
505	 3047.20232391366 
506	 3109.41603777373 
507	 3172.80846649373 
508	 3237.94342743391 
509	 3305.906419489 
510	 3374.86236314057 
511	 3443.26326179482 
512	 3509.40984192315 
513	 3579.50431828098 
514	 3653.33245869087 
515	 3727.87335325735 
516	 3804.08656415804 
517	 3880.66387342805 
518	 3956.53839680892 
519	 4032.43660885082 
520	 4108.96388683663 
521	 4186.74971733952 
522	 4266.7065378965 
523	 4346.60392642299 
524	 4426.59005660269 
525	 4507.8700757958 
526	 4589.47853551267 
527	 4671.99223065191 
528	 4755.37692187222 
529	 4836.02933742828 
530	 4916.80465663142 
531	 4999.18267179934 
532	 5082.74231179962 
533	 5163.82113839639 
534	 5242.71558918404 
535	 5321.96873013919 
536	 5402.2299433479 
537	 5481.81550826886 
538	 5559.01808497867 
539	 5634.34701930987 
540	 5710.50370941362 
541	 5787.67761687329 
542	 5861.31577925776 
543	 5933.75609096268 
544	 6005.10831638251 
545	 6074.58390311818 
546	 6149.01182680111 
547	 6223.22591484401 
548	 6291.1493141271 
549	 6358.98601860714 
550	 6425.33926129872 
551	 6489.55564689578 
552	 6553.46606366969 
553	 6617.14260454269 
554	 6679.94363920419 
555	 6740.54058462541 
556	 6799.70514648566 
557	 6855.11524315566 
558	 6904.85072358872 
559	 6954.94571041665 
560	 7005.08192312665 
561	 7053.05855465463 
562	 7093.89487250484 
563	 7128.34426288623 
564	 7156.42730981662 
565	 7177.63692240239 
566	 7194.69613304192 
567	 7205.68534567067 
568	 7207.75567011397 
569	 7205.34543675457 
570	 7197.42905295644 
571	 7183.79566183538 
572	 7168.67768123439 
573	 7150.90032379991 
574	 7129.45277371654 
575	 7103.4767359545 
576	 7071.59424403688 
577	 7034.54762076823 
578	 6993.82470182234 
579	 6946.20871583341 
580	 6895.25011842024 
581	 6845.07035940425 
582	 6796.44515694017 
583	 6756.73201164665 
584	 6724.50668120733 
585	 6684.44299086811 
586	 6643.69480796035 
587	 6603.2191672723 
588	 6561.86035827446 
589	 6522.89937663156 
590	 6489.85505986306 
591	 6465.74775229648 
592	 6452.46346817597 
593	 6442.6641345862 
594	 6432.69089133423 
595	 6425.16451032717 
596	 6426.90704303986 
597	 6442.0214545843 
598	 6472.48035016451 
599	 6503.80602694479 
600	 6535.0802701531 
601	 6569.32080896976 
602	 6608.18702061522 
603	 6645.68583627774 
604	 6679.83450753139 
605	 6719.213958457 
606	 6760.94869407011 
607	 6809.13040927327 
608	 6874.39597785084 
609	 6950.30041516551 
610	 7036.14258866209 
611	 7131.26640869569 
612	 7223.9138944665 
613	 7314.35291063172 
614	 7402.24917302336 
615	 7478.99959432749 
616	 7553.12113360946 
617	 7627.62592809605 
618	 7698.72741272288 
619	 7773.75097647758 
620	 7851.78181995241 
621	 7928.51272531541 
622	 8005.93334339789 
623	 8086.39091493811 
624	 8170.58014898082 
625	 8253.23698989923 
626	 8333.47122413039 
627	 8411.09099342123 
628	 8486.74450131866 
629	 8560.26278156141 
630	 8630.04359923173 
631	 8693.75201094195 
632	 8755.62123808252 
633	 8813.0496791793 
634	 8864.25500763422 
635	 8919.36880947406 
636	 8973.29587942789 
637	 9022.74695367861 
638	 9069.42657683848 
639	 9114.83850093655 
640	 9160.86454871979 
641	 9209.73583273586 
642	 9262.270494105 
643	 9315.09460420601 
644	 9365.05335146552 
645	 9419.80769684552 
646	 9476.80278313498 
647	 9533.81782886463 
648	 9592.21756883756 
649	 9649.69437372891 
650	 9707.6785494171 
651	 9771.52659699017 
652	 9835.10714238252 
653	 9901.33496837675 
654	 9974.79925276486 
655	 10044.7121818656 
656	 10113.4098617252 
657	 10184.0464766972 
658	 10255.8787609758 
659	 10331.5782263419 
660	 10410.7263312008 
661	 10488.8173490323 
662	 10568.3443346013 
663	 10649.3103753386 
664	 10730.6907614449 
665	 10810.5743049281 
666	 10891.5579064777 
667	 10976.0903258393 
668	 11062.4477295258 
669	 11152.6668658155 
670	 11246.2641195015 
671	 11338.0254462147 
672	 11433.9359395975 
673	 11532.3512971702 
674	 11627.9818372042 
675	 11729.79181643 
676	 11833.8449801235 
677	 11935.960916657 
678	 12045.7535341891 
679	 12155.9556364876 
680	 12262.9559617642 
681	 12371.4160924815 
682	 12481.4060064754 
683	 12592.5933592252 
684	 12704.1496065026 
685	 12818.7568163435 
686	 12934.943999213 
687	 13050.4618925372 
688	 13165.6336672891 
689	 13281.9378392596 
690	 13400.157431835 
691	 13519.944095261 
692	 13637.0517274758 
693	 13751.3103630632 
694	 13866.0532186663 
695	 13975.3198477369 
696	 14082.3380403701 
697	 14192.0628806806 
698	 14299.4154956703 
699	 14404.7890382778 
700	 14507.9760229909 
701	 14605.1636142858 
702	 14701.7587187931 
703	 14796.3776289527 
704	 14880.4754811068 
705	 14969.2780940698 
706	 15056.4091760082 
707	 15130.4453183019 
708	 15208.8452386369 
709	 15284.0165801679 
710	 15350.3717074016 
711	 15417.6105025413 
712	 15482.0986029916 
713	 15542.4272340477 
714	 15599.4219232182 
715	 15654.756632976 
716	 15708.4851643149 
717	 15760.2536311148 
718	 15813.2000675951 
719	 15864.9017800752 
720	 15913.0590192068 
721	 15958.7722802411 
722	 15999.2589992171 
723	 16036.7804208504 
724	 16080.3981769148 
725	 16123.7333837693 
726	 16167.5007656162 
727	 16214.147492462 
728	 16254.0062761038 
729	 16293.0384868592 
730	 16336.016658181 
731	 16373.916225495 
732	 16416.8775553501 
733	 16465.1114344656 
734	 16505.3327302484 
735	 16542.9508043755 
736	 16578.4502661478 
737	 16610.7262257576 
738	 16638.9324626938 
739	 16664.35289584 
740	 16688.425412659 
741	 16711.5701375868 
742	 16735.0404055258 
743	 16757.4384943233 
744	 16773.18433751 
745	 16791.6614529433 
746	 16808.4801417664 
747	 16814.8160073851 
748	 16826.6958714576 
749	 16838.4097151262 
750	 16843.7755854763 
751	 16847.5537229405 
752	 16848.5816743422 
753	 16847.2198863451 
754	 16846.0001754402 
755	 16843.3018516632 
756	 16837.4069875094 
757	 16825.9464997921 
758	 16803.3040364772 
759	 16769.474082529 
760	 16731.7085981947 
761	 16717.3172270337 
762	 16707.779143067 
763	 16694.6783462903 
764	 16681.1490269081 
765	 16667.4921905297 
766	 16651.1628959301 
767	 16628.4042409751 
768	 16596.0519852034 
769	 16563.3038938307 
770	 16535.279368975 
771	 16500.7159597888 
772	 16464.802112143 
773	 16429.3568625436 
774	 16393.0157469174 
775	 16354.884828433 
776	 16315.6289191262 
777	 16276.0634387984 
778	 16233.928233878 
779	 16186.8721181553 
780	 16135.1838387365 
781	 16085.3569375874 
782	 16035.5661559684 
783	 15983.9112991951 
784	 15928.1125594646 
785	 15871.4955598476 
786	 15813.5461291482 
787	 15753.7438804095 
788	 15698.673613691 
789	 15639.7571686137 
790	 15575.0685022532 
791	 15519.70576352 
792	 15457.6925959923 
793	 15387.411173019 
794	 15315.980045778 
795	 15244.8424681468 
796	 15174.5287851966 
797	 15105.0467934816 
798	 15036.6286385055 
799	 14967.7742831689 
800	 14897.47926381 
801	 14825.4005200607 
802	 14752.1387592826 
803	 14680.4930540119 
804	 14613.6733242472 
805	 14545.7543017352 
806	 14474.715032249 
807	 14399.8508165089 
808	 14321.4819693748 
809	 14244.1021022554 
810	 14168.7784229352 
811	 14092.8328979172 
812	 14020.002409158 
813	 13945.8960587187 
814	 13865.5805610977 
815	 13790.8990378905 
816	 13715.3775876705 
817	 13636.1777027967 
818	 13563.2693915159 
819	 13486.7566710071 
820	 13405.8096509739 
821	 13325.3440429461 
822	 13240.6800988189 
823	 13155.3126776595 
824	 13073.4041007439 
825	 12993.8193141093 
826	 12916.6552039175 
827	 12841.7487615508 
828	 12769.2147994317 
829	 12689.7873223188 
830	 12603.6645840997 
831	 12514.5063574943 
832	 12415.0364923125 
833	 12314.8946369093 
834	 12221.2607926256 
835	 12128.4103224116 
836	 12046.4314243822 
837	 11976.1543104998 
838	 11911.0239172532 
839	 11857.3672016787 
840	 11807.835838833 
841	 11753.2698544694 
842	 11694.0692983912 
843	 11625.7332715827 
844	 11549.6007689706 
845	 11476.0186112306 
846	 11401.9855582525 
847	 11326.9709264933 
848	 11251.0545426419 
849	 11174.5596842875 
850	 11097.9543029715 
851	 11022.1512039233 
852	 10949.6129272136 
853	 10875.8766426297 
854	 10802.037006118 
855	 10733.0621633875 
856	 10661.3150726027 
857	 10588.5307796251 
858	 10517.0448161972 
859	 10442.0404222993 
860	 10368.1485411544 
861	 10296.6559670615 
862	 10224.3338765534 
863	 10152.2976748042 
864	 10081.0659248024 
865	 10010.795972345 
866	 9940.12813412837 
867	 9868.93903312572 
868	 9797.93934524966 
869	 9729.44811902715 
870	 9661.1008601811 
871	 9592.73343099907 
872	 9525.09330814419 
873	 9456.35182913996 
874	 9386.8895091185 
875	 9316.87536207367 
876	 9244.5939858809 
877	 9171.87279977068 
878	 9100.68523842455 
879	 9033.02639851386 
880	 8964.85490869277 
881	 8897.59881114424 
882	 8832.5432723064 
883	 8764.5316853376 
884	 8700.67630909113 
885	 8640.06805120895 
886	 8572.04765000445 
887	 8503.7358150334 
888	 8436.49792058696 
889	 8370.12593796489 
890	 8305.19784399031 
891	 8239.04408924974 
892	 8171.25663826495 
893	 8105.42590714813 
894	 8037.31242752527 
895	 7968.30968762519 
896	 7901.70016061224 
897	 7837.22801904116 
898	 7771.35182448588 
899	 7703.15167336663 
900	 7637.45467183299 
901	 7573.26531609571 
902	 7509.50554501772 
903	 7444.98730065998 
904	 7380.63533555841 
905	 7317.78121993613 
906	 7256.32640149186 
907	 7192.8246392044 
908	 7127.79624784013 
909	 7062.74871883885 
910	 6999.60113395283 
911	 6934.6874996113 
912	 6870.61337062243 
913	 6808.91573531043 
914	 6745.52672684244 
915	 6682.34911288603 
916	 6620.14882804898 
917	 6558.94027967636 
918	 6498.39612173933 
919	 6436.45838911639 
920	 6372.3623859528 
921	 6309.94094306076 
922	 6246.32007404003 
923	 6182.78328863416 
924	 6123.36282996404 
925	 6063.75992227239 
926	 6004.97323179237 
927	 5947.3253996176 
928	 5886.18957142148 
929	 5823.12883117132 
930	 5758.12830703835 
931	 5690.4079390602 
932	 5626.43026813304 
933	 5563.0222221975 
934	 5497.66084322717 
935	 5435.52142358075 
936	 5375.51828437512 
937	 5317.0110212854 
938	 5259.51734877727 
939	 5201.65095211839 
940	 5143.24112920387 
941	 5084.45793529257 
942	 5025.59533637983 
943	 4966.14061413156 
944	 4907.85011858216 
945	 4853.30332484511 
946	 4794.97200335399 
947	 4737.7412776601 
948	 4684.69646137157 
949	 4629.51224776728 
950	 4574.75018977235 
951	 4521.25141008584 
952	 4468.84507377015 
953	 4415.48545752186 
954	 4362.91468899602 
955	 4312.0069333238 
956	 4261.18662884345 
957	 4207.30508965047 
958	 4151.95950408913 
959	 4098.47640881416 
960	 4044.3316539074 
961	 3991.62654951002 
962	 3940.5733419926 
963	 3887.68569333122 
964	 3834.86014006774 
965	 3782.226573911 
966	 6130.87520305497 
967	 6197.53715156185 
968	 6266.50628120632 
969	 6347.51432491931 
970	 6436.57587841328 
971	 6530.04784138124 
972	 6637.23958304915 
973	 6740.80377679745 
974	 6846.86289961717 
975	 6953.26632570497 
976	 7064.34416613079 
977	 7170.08019051806 
978	 7269.45768344583 
979	 7368.75254280357 
980	 7465.14618963009 
981	 7557.26135247338 
982	 7645.94022074431 
983	 7733.97346385938 
984	 7813.18850014398 
985	 7885.54833485445 
986	 7957.75083424143 
987	 8027.98444879596 
988	 8095.0817093782 
989	 8158.11799998179 
990	 8220.86662817209 
991	 8279.4443731459 
992	 8340.0969321866 
993	 8400.42447893971 
994	 8461.55681128876 
995	 8524.26977181501 
996	 8586.75339489875 
997	 8645.7367007555 
998	 8704.66813444343 
999	 8763.83036143413 
1000	 8822.5727292254 
1001	 8886.37116099899 
1002	 8951.81279615327 
1003	 9014.79934111588 
1004	 9076.70812836001 
1005	 9136.90424832669 
1006	 9194.14656372994 
1007	 9252.38066282268 
1008	 9310.8314402711 
1009	 9365.44359572679 
1010	 9422.42049454085 
1011	 9478.06705845667 
1012	 9534.9050920322 
1013	 9592.63840030779 
1014	 9646.85185005318 
1015	 9699.3825182157 
1016	 9747.90334510085 
1017	 9796.78414949471 
1018	 9845.63126789165 
1019	 9893.3503915152 
1020	 9943.14364389863 
1021	 9993.33275088687 
1022	 10044.0366950654 
1023	 10095.2208797977 
1024	 10146.7797755854 
1025	 10198.2618357023 
1026	 10250.2648841314 
1027	 10305.5028901603 
1028	 10362.7368947886 
1029	 10415.9960104127 
1030	 10469.5750084977 
1031	 10523.760901621 
1032	 10573.944664576 
1033	 10629.5560428184 
1034	 10687.630077254 
1035	 10740.9494676042 
1036	 10796.9329044381 
1037	 10850.487495034 
1038	 10902.636160367 
1039	 10958.5871164662 
1040	 11012.041956328 
1041	 11065.1441374624 
1042	 11117.2504708834 
1043	 11168.7238514729 
1044	 11217.1641035125 
1045	 11265.1633420321 
1046	 11314.3586423134 
1047	 11361.9362302623 
1048	 11408.2728860204 
1049	 11453.9833735036 
1050	 11496.3191331957 
1051	 11537.2747124381 
1052	 11580.4995790653 
1053	 11622.4276155372 
1054	 11661.9994943566 
1055	 11703.0393610547 
1056	 11740.6304090016 
1057	 11778.3107654945 
1058	 11816.1882666523 
1059	 11853.6222153955 
1060	 11888.697899298 
1061	 11926.398273712 
1062	 11965.9970966723 
1063	 12002.4138930739 
1064	 12040.4448276309 
1065	 12079.2830382825 
1066	 12116.7970296668 
1067	 12156.7171074895 
1068	 12197.9926845263 
1069	 12242.0107994995 
1070	 12289.280357973 
1071	 12337.0948382578 
1072	 12384.114345943 
1073	 12429.2151291023 
1074	 12477.4611467499 
1075	 12524.6371042647 
1076	 12575.0492824066 
1077	 12631.4218604426 
1078	 12684.2902791113 
1079	 12734.835657094 
1080	 12786.9661163549 
1081	 12837.020375144 
1082	 12891.7950072177 
1083	 12947.6501047786 
1084	 13008.3419922865 
1085	 13073.1534128704 
1086	 13140.2631537475 
1087	 13213.324056812 
1088	 13286.2749844167 
1089	 13358.5770591706 
1090	 13436.6503447818 
1091	 13515.4762092781 
1092	 13592.921575972 
1093	 13678.16394379 
1094	 13768.4174459056 
1095	 13861.0113033887 
1096	 13956.3255200484 
1097	 14058.1270950372 
1098	 14165.0411130653 
1099	 14275.4229008298 
1100	 14389.3246532874 
1101	 14509.879671096 
1102	 14635.6109392349 
1103	 14764.6924408642 
1104	 14901.3271838311 
1105	 15040.5292621439 
1106	 15177.0143006779 
1107	 15318.0354401097 
1108	 15460.8910983966 
1109	 15608.3553829845 
1110	 15761.7670762992 
1111	 15921.0583603757 
1112	 16083.7343018839 
1113	 16251.7795024451 
1114	 16422.3298469261 
1115	 16597.0050577905 
1116	 16774.7166831418 
1117	 16956.3730819035 
1118	 17139.7974582814 
1119	 17324.888881572 
1120	 17515.2431114538 
1121	 17707.9241528605 
1122	 17905.4627382598 
1123	 18108.5564607638 
1124	 18315.0482144201 
1125	 18526.8661938158 
1126	 18739.7156193406 
1127	 18955.2014183814 
1128	 19176.4138389103 
1129	 19392.4961239223 
1130	 19609.5131323061 
1131	 19822.7951377479 
1132	 20032.0294812838 
1133	 20244.2505076298 
1134	 20457.3403818446 
1135	 20667.1403844865 
1136	 20878.7983388917 
1137	 21085.0502127794 
1138	 21286.5868365418 
1139	 21486.7868740647 
1140	 21684.4626307927 
1141	 21880.4174100509 
1142	 22074.8429211478 
1143	 22265.8834767169 
1144	 22454.2450220612 
1145	 22640.6286658975 
1146	 22825.1062680851 
1147	 23005.5878973926 
1148	 23183.0572210511 
1149	 23357.7412155312 
1150	 23531.1373850122 
1151	 23700.8115378702 
1152	 23869.868144251 
1153	 24040.3153497222 
1154	 24203.1135195795 
1155	 24362.1291245271 
1156	 24516.838695707 
1157	 24668.0351101271 
1158	 24812.6267779033 
1159	 24953.2358649638 
1160	 25087.0980001903 
1161	 25212.8192953255 
1162	 25335.6882853227 
1163	 25452.6815007457 
1164	 25567.6198820637 
1165	 25680.8411560458 
1166	 25787.3904633732 
1167	 25888.7716717375 
1168	 25987.2001359177 
1169	 26078.976222712 
1170	 26167.9628848108 
1171	 26250.7190900109 
1172	 26329.6106206582 
1173	 26402.2602449361 
1174	 26467.4126230437 
1175	 26531.1622298407 
1176	 26589.4651616031 
1177	 26649.1415736794 
1178	 26706.3433910147 
1179	 26762.3972057815 
1180	 26818.1434047463 
1181	 26871.8381439156 
1182	 26925.150388033 
1183	 26973.6017196884 
1184	 27017.8512125323 
1185	 27062.512095532 
1186	 27103.8640003057 
1187	 27144.253428124 
1188	 27185.2815669893 
1189	 27224.7997462162 
1190	 27261.8328486608 
1191	 27296.7181753931 
1192	 27335.2736467813 
1193	 27369.117618419 
1194	 27401.4424839702 
1195	 27433.5868129067 
1196	 27463.5764317414 
1197	 27492.9359970466 
1198	 27517.7624819997 
1199	 27539.8579457762 
1200	 27560.2708567338 
1201	 27577.1735382595 
1202	 27591.8238314931 
1203	 27604.6922944713 
1204	 27615.5238712537 
1205	 27622.1216407034 
1206	 27630.037122616 
1207	 27638.4479287387 
1208	 27644.7092946093 
1209	 27650.2242036511 
1210	 27652.6325166633 
1211	 27653.0081122318 
1212	 27650.3239959212 
1213	 27645.9806184293 
1214	 27647.2217123264 
1215	 27646.4917943585 
1216	 27645.6598487764 
1217	 27644.8057398021 
1218	 27638.2078623904 
1219	 27632.2176049827 
1220	 27628.9005326636 
1221	 27625.3732303718 
1222	 27622.472175326 
1223	 27619.6659166718 
1224	 27617.715820564 
1225	 27614.8706273236 
1226	 27611.1392683212 
1227	 27609.7222486323 
1228	 27609.5977048637 
1229	 27607.5537515896 
1230	 27605.6681507834 
1231	 27604.2002524483 
1232	 27601.0280734384 
1233	 27599.612412865 
1234	 27598.6468103839 
1235	 27600.4091433121 
1236	 27602.960134863 
1237	 27608.0677872311 
1238	 27615.1089246278 
1239	 27622.5154011723 
1240	 27633.4096347669 
1241	 27642.4322853551 
1242	 27650.3647848001 
1243	 27661.2681994409 
1244	 27672.506149275 
1245	 27685.4827394106 
1246	 27704.9971435955 
1247	 27727.4695564471 
1248	 27748.1866077092 
1249	 27768.4100518063 
1250	 27791.1257817226 
1251	 27814.9082824616 
1252	 27839.8509874685 
1253	 27868.1972736418 
1254	 27894.6727860878 
1255	 27918.6400379573 
1256	 27944.3504489965 
1257	 27970.6958401164 
1258	 27998.3489773874 
1259	 28029.5669795546 
1260	 28058.8255451313 
1261	 28088.1350068495 
1262	 28115.2943818763 
1263	 28143.9143522514 
1264	 28170.539431206 
1265	 28196.2847012649 
1266	 28217.2245350785 
1267	 28231.357903773 
1268	 28242.0990039634 
1269	 28246.2391714487 
1270	 28248.1852668882 
1271	 28248.6057212855 
1272	 28243.1966173118 
1273	 28232.8104249675 
1274	 28213.0434169133 
1275	 28186.3394913199 
1276	 28156.7204868594 
1277	 28120.8529888888 
1278	 28082.7004235883 
1279	 28041.735340617 
1280	 27996.9920316489 
1281	 27948.4367467079 
1282	 27897.1813225253 
1283	 27843.8456419696 
1284	 27785.9796658225 
1285	 27726.3480055413 
1286	 27660.6881757174 
1287	 27600.8035417571 
1288	 27540.741085683 
1289	 27483.6773991585 
1290	 27430.1724587981 
1291	 27382.0496456358 
1292	 27333.0195292588 
1293	 27284.4689639918 
1294	 27241.4961849096 
1295	 27201.4781354759 
1296	 27166.6733481386 
1297	 27142.3566021698 
1298	 27124.6560603146 
1299	 27108.5767202418 
1300	 27099.5959809152 
1301	 27094.58931037 
1302	 27093.9268509341 
1303	 27101.4461174159 
1304	 27112.9074238018 
1305	 27127.0904258624 
1306	 27142.0993259271 
1307	 27157.5831534493 
1308	 27173.9879081504 
1309	 27193.3438059102 
1310	 27217.8489980837 
1311	 27244.0621319512 
1312	 27271.7792712491 
1313	 27303.8110586198 
1314	 27333.1313264991 
1315	 27360.7084839878 
1316	 27391.9099973209 
1317	 27421.3340877471 
1318	 27456.8362063963 
1319	 27495.8628670446 
1320	 27539.8359900739 
1321	 27587.0083727662 
1322	 27636.5151540315 
1323	 27690.9092515045 
1324	 27749.4080918275 
1325	 27814.9542285409 
1326	 27888.5273688835 
1327	 27966.7951112114 
1328	 28052.6123236558 
1329	 28141.0430018314 
1330	 28232.3834331761 
1331	 28329.6539239085 
1332	 28427.6421997861 
1333	 28534.1543540777 
1334	 28646.4588470697 
1335	 28760.0495778793 
1336	 28879.5924547561 
1337	 29001.8060427727 
1338	 29127.0810670371 
1339	 29252.6152121159 
1340	 29376.8100476332 
1341	 29501.7047773401 
1342	 29621.4654999973 
1343	 29739.6530901587 
1344	 29854.5989449045 
1345	 29958.3678752094 
1346	 30054.0497782603 
1347	 30141.4710291624 
1348	 30220.9652354208 
1349	 30288.9945062391 
1350	 30348.5906611899 
1351	 30398.2456701757 
1352	 30432.077577004 
1353	 30466.8918018102 
1354	 30494.0242768875 
1355	 30519.9293578868 
1356	 30553.6459405686 
1357	 30592.0058854136 
1358	 30638.8155695385 
1359	 30697.8247911224 
1360	 30762.9572021856 
1361	 30843.7167534778 
1362	 30946.9475841693 
1363	 31068.9140746192 
1364	 31217.0334358408 
1365	 31377.6727480573 
1366	 31550.7984713754 
1367	 31736.1751268579 
1368	 31926.3967589203 
1369	 32115.0774657368 
1370	 32302.2928603916 
1371	 32466.5747929296 
1372	 32604.1797774544 
1373	 32718.9306686452 
1374	 32786.9516580172 
1375	 32823.7035280708 
1376	 32823.3135578783 
1377	 32793.2713788067 
1378	 32741.3311865147 
1379	 32673.9766741615 
1380	 32598.5027998393 
1381	 32521.6239899299 
1382	 32457.1597567862 
1383	 32404.2976150488 
1384	 32371.0400953755 
1385	 32347.3289303148 
1386	 32334.7334455396 
1387	 32333.6885964015 
1388	 32340.5770702222 
1389	 32360.3825950668 
1390	 32391.9533571809 
1391	 32434.5147996127 
1392	 32491.2678076523 
1393	 32560.0571659702 
1394	 32640.6535131597 
1395	 32735.6821748103 
1396	 32841.606749824 
1397	 32950.8313050936 
1398	 33071.0085442103 
1399	 33197.5989404024 
1400	 33321.0972315349 
1401	 33447.4638915888 
1402	 33564.5552395839 
1403	 33670.5979042245 
1404	 33769.6175595475 
1405	 33849.7811798001 
1406	 33927.6225540369 
1407	 33999.7143329287 
1408	 34058.8234200452 
1409	 34122.2730175763 
1410	 34182.2557832084 
1411	 34232.1390640968 
1412	 34281.2937455043 
1413	 34326.3280519024 
1414	 34365.3270087684 
1415	 34401.7779412531 
1416	 34430.7118970681 
1417	 34451.9186564655 
1418	 34467.8691425918 
1419	 34479.232691765 
1420	 34488.5603972059 
1421	 34491.2568095481 
1422	 34487.3697761044 
1423	 34478.5827809104 
1424	 34465.0538815093 
1425	 34445.6401472879 
1426	 34419.4626114465 
1427	 34390.5973582965 
1428	 34355.8873044022 
1429	 34318.5626899756 
1430	 34282.0692174882 
1431	 34238.957206712 
1432	 34191.798293669 
1433	 34146.6527591109 
1434	 34099.5506001735 
1435	 34053.405913746 
1436	 34008.8597599931 
1437	 33960.3477860642 
1438	 33913.9573355066 
1439	 33867.6781225181 
1440	 33821.3813210301 
1441	 33781.9516978075 
1442	 33745.3052241389 
1443	 33709.7948896539 
1444	 33674.3513833306 
1445	 33638.29835476 
1446	 33599.2705055429 
1447	 33562.6953679255 
1448	 33528.4912584798 
1449	 33494.5633358342 
1450	 33462.3442682496 
1451	 33426.0439563191 
1452	 33388.4561684231 
1453	 33349.8403913219 
1454	 33308.2572623897 
1455	 33268.7064464647 
1456	 33229.2709806681 
1457	 33182.6574964252 
1458	 33132.385266749 
1459	 33080.5923004033 
1460	 33022.4404134164 
1461	 32960.9183480137 
1462	 32898.5053466902 
1463	 32831.3237447312 
1464	 32764.9043762522 
1465	 32700.931430437 
1466	 32636.7986608204 
1467	 32578.017273073 
1468	 32518.3189895321 
1469	 32459.1561185144 
1470	 32402.5726341283 
1471	 32344.7981671487 
1472	 32292.4370812316 
1473	 32240.9464634603 
1474	 32191.5251143564 
1475	 32144.7634253557 
1476	 32096.0376850359 
1477	 32051.0227207611 
1478	 32009.1532066589 
1479	 31967.7530801001 
1480	 31927.9171925703 
1481	 31888.5995508936 
1482	 31845.5577933316 
1483	 31798.319138728 
1484	 31752.9496673467 
1485	 31710.6228506769 
1486	 31669.7103108981 
1487	 31632.4320322255 
1488	 31594.7078784844 
1489	 31552.4642193898 
1490	 31511.5379247638 
1491	 31473.7725691215 
1492	 31437.1071968655 
1493	 31400.4737543474 
1494	 31361.9939769863 
1495	 31320.8845909227 
1496	 31279.2961135235 
1497	 31240.3252674839 
1498	 31202.2830150368 
1499	 31164.1374076513 
1500	 31126.2902055145 
1501	 31087.2635509793 
1502	 31045.7655786006 
1503	 31004.4051539595 
1504	 30964.1344673964 
1505	 30922.4870347965 
1506	 30884.6444739053 
1507	 30849.2688224093 
1508	 30809.3893444128 
1509	 30769.0517746168 
1510	 30727.5728161086 
1511	 30685.8105839037 
1512	 30648.8837864661 
1513	 30611.6294279215 
1514	 30573.7788368911 
1515	 30535.8597869013 
1516	 30496.6089279237 
1517	 30456.6459926287 
1518	 30416.5949969129 
1519	 30374.3655242454 
1520	 30327.0938783757 
1521	 30281.5839713169 
1522	 30236.8943162308 
1523	 30193.7656305754 
1524	 30155.1228963144 
1525	 30114.2233492284 
1526	 30069.8503568957 
1527	 30025.1958269734 
1528	 29980.3409392188 
1529	 29935.0539160384 
1530	 29890.2241751537 
1531	 29844.2099516405 
1532	 29799.2382204422 
1533	 29751.8053182099 
1534	 29703.6833098586 
1535	 29660.9860121745 
1536	 29615.7827808214 
1537	 29568.8287386544 
1538	 29521.367774599 
1539	 29470.6166165203 
1540	 29419.5587162697 
1541	 29368.0679707773 
1542	 29318.7462708622 
1543	 29271.6533869555 
1544	 29223.0005062797 
1545	 29173.3052605014 
1546	 29121.8538649914 
1547	 29069.4384111454 
1548	 29017.4949031783 
1549	 28964.0624827735 
1550	 28910.4378155964 
1551	 28856.9515886588 
1552	 28800.7040440578 
1553	 28743.7922751223 
1554	 28687.4010241744 
1555	 28630.7751110701 
1556	 28575.2367793859 
1557	 28518.9759846182 
1558	 28463.7635608914 
1559	 28409.1102798767 
1560	 28348.8974997436 
1561	 28286.3901134673 
1562	 28225.556429317 
1563	 28163.2851223838 
1564	 28102.3296403831 
1565	 28045.2532003051 
1566	 27984.6767775654 
1567	 27921.955419433 
1568	 27861.1744401329 
1569	 27797.8695480362 
1570	 27735.1714904384 
1571	 27672.3841797754 
1572	 27606.802193405 
1573	 27542.4922292891 
1574	 27475.386742874 
1575	 27409.2457727122 
1576	 27348.2438491981 
1577	 27283.6034193499 
1578	 27219.5154745968 
1579	 27157.4013551361 
1580	 27089.5737006584 
1581	 27022.4247344913 
1582	 26955.1967954174 
1583	 26885.2446833035 
1584	 26817.0944932712 
1585	 26746.5413874144 
1586	 26676.950027898 
1587	 26607.8266528636 
1588	 26535.9289014229 
1589	 26466.9940596185 
1590	 26397.1399106669 
1591	 26325.5027225167 
1592	 26255.3579367735 
1593	 26183.7054078186 
1594	 26111.6158047386 
1595	 26040.1927658189 
1596	 25968.6618055007 
1597	 25896.0658797379 
1598	 25822.794601713 
1599	 25751.3684376506 
1600	 25679.7713290147 
1601	 25608.5168628053 
1602	 25540.7506166001 
1603	 25469.1004028872 
1604	 25393.2077186303 
1605	 25317.4443694388 
1606	 25235.311918889 
1607	 25155.6065962752 
1608	 25079.8133477765 
1609	 25000.1211608012 
1610	 24921.9595979541 
1611	 24843.4247031142 
1612	 24761.7099409731 
1613	 24679.9341450859 
1614	 24599.7059766758 
1615	 24517.2901972189 
1616	 24435.58570421 
1617	 24352.6038495843 
1618	 24265.4177237612 
1619	 24178.5982518577 
1620	 24089.6319948049 
1621	 24000.2603128132 
1622	 23913.6991754119 
1623	 23826.9340081892 
1624	 23737.9145348627 
1625	 23647.1135295159 
1626	 23553.5138716985 
1627	 23457.930875167 
1628	 23361.364152871 
1629	 23266.837848124 
1630	 23175.1522442499 
1631	 23086.3760606618 
1632	 23001.2328563654 
1633	 22916.2134746044 
1634	 22831.6125830595 
1635	 22745.2597280187 
1636	 22655.3022169683 
1637	 22569.3692544371 
1638	 22484.8139078284 
1639	 22401.190569676 
1640	 22321.7459100836 
1641	 22241.0153455494 
1642	 22161.2712147434 
1643	 22078.4172030929 
1644	 21995.7849165041 
1645	 21908.0566394944 
1646	 21814.7116237307 
1647	 21722.533230716 
1648	 21627.8001916225 
1649	 21533.5091036106 
1650	 21441.8742473356 
1651	 21345.1058688145 
1652	 21248.1154160143 
1653	 21143.7647155402 
1654	 21033.7850173617 
1655	 20920.75692037 
1656	 20804.9944373924 
1657	 20679.909150014 
1658	 20552.7608103945 
1659	 20412.5198679166 
1660	 20259.2949400244 
1661	 20102.4426606955 
1662	 19937.3700558307 
1663	 19767.1203899152 
1664	 19588.6026204263 
1665	 19410.7497769831 
1666	 19225.6575847648 
1667	 19045.9400109333 
1668	 18864.200322004 
1669	 18692.0646279585 
1670	 18520.5476178283 
1671	 18363.0938267178 
1672	 18213.0124276333 
1673	 18077.5877033702 
1674	 17953.9036030215 
1675	 17840.5452677868 
1676	 17741.6726010129 
1677	 17646.352686517 
1678	 17559.4456567553 
1679	 17478.8753860722 
1680	 17405.1785787674 
1681	 17337.7721888237 
1682	 17278.0220993973 
1683	 17223.8561628663 
1684	 17173.1569272347 
1685	 17130.4938354843 
1686	 17091.5240731885 
1687	 17055.8371473513 
1688	 17021.8271649167 
1689	 16991.6335611261 
1690	 16959.6497913029 
1691	 16929.132557494 
1692	 16897.6999995758 
1693	 16864.9668981831 
1694	 16831.3206709363 
1695	 16797.3107414963 
1696	 16762.7996123951 
1697	 16724.9157121807 
1698	 16690.6016900574 
1699	 16656.9926067216 
1700	 16626.1459263007 
1701	 16598.8929055904 
1702	 16571.4756030265 
1703	 16546.8160677534 
1704	 16520.1553686299 
1705	 16491.8178444631 
1706	 16465.9104751182 
1707	 16441.8847031213 
1708	 16415.0038991277 
1709	 16389.8061753367 
1710	 16360.6730559511 
1711	 16326.2521636377 
1712	 16294.6915299628 
1713	 16262.7841552198 
1714	 16231.3231387691 
1715	 16201.3084268503 
1716	 16169.3588251971 
1717	 16136.4664377048 
1718	 16103.6239142158 
1719	 16068.3807048771 
1720	 16038.6560047496 
1721	 16011.5844054755 
1722	 15983.2845573125 
1723	 15957.2744728437 
1724	 15930.5145308972 
1725	 15902.0095860871 
1726	 15878.2032225521 
1727	 15854.751175481 
1728	 15832.3701171592 
1729	 15808.3626361224 
1730	 15781.4093530111 
1731	 15756.0401783423 
1732	 15732.2180355384 
1733	 15710.1607400364 
1734	 15694.3634493623 
1735	 15674.4678386536 
1736	 15650.4780940099 
1737	 15630.4055817921 
1738	 15610.8510025219 
1739	 15592.4000922973 
1740	 15577.8697742525 
1741	 15561.078855271 
1742	 15543.0199527922 
1743	 15525.2262911603 
1744	 15505.3029316231 
1745	 15490.8280617082 
1746	 15478.6596691973 
1747	 15466.5712677557 
1748	 15460.0399454222 
1749	 15447.596743096 
1750	 15431.2540134486 
1751	 15417.8747345737 
1752	 15403.7271836064 
1753	 15390.7084261646 
1754	 15380.3146031403 
1755	 15367.8295823796 
1756	 9428.98070791737 
1757	 9551.08850442444 
1758	 9675.73232205826 
1759	 9800.17753417665 
1760	 9916.77585696029 
1761	 10039.8445561386 
1762	 10174.3078875335 
1763	 10315.5635876287 
1764	 10447.3533764888 
1765	 10586.8437427598 
1766	 10709.9058631197 
1767	 10813.1956127568 
1768	 10930.9880006111 
1769	 11053.8891061905 
1770	 11164.676641207 
1771	 11278.2295651232 
1772	 11401.5578980103 
1773	 11526.6259350818 
1774	 11644.9774007173 
1775	 11778.7843688516 
1776	 11935.1032870933 
1777	 12073.3794684548 
1778	 12209.4096486584 
1779	 12351.4492054609 
1780	 12474.2422354354 
1781	 12590.3926894359 
1782	 12716.6797882645 
1783	 12841.1452794197 
1784	 12965.5770607992 
1785	 13090.5909242225 
1786	 13221.5132482936 
1787	 13353.1014841431 
1788	 13476.0940792175 
1789	 13599.4428357822 
1790	 13719.8404275337 
1791	 13831.610782082 
1792	 13947.6699817362 
1793	 14074.5864943466 
1794	 14201.599375073 
1795	 14333.6565706339 
1796	 14465.9639608562 
1797	 14594.5371092295 
1798	 14718.2535192589 
1799	 14851.6522763112 
1800	 14973.3009112825 
1801	 15087.9640715098 
1802	 15200.788432754 
1803	 15296.2218476952 
1804	 15369.8845081857 
1805	 15443.2373416478 
1806	 15503.9644874709 
1807	 15570.0953474566 
1808	 15626.6859654675 
1809	 15680.7190948608 
1810	 15745.8421460738 
1811	 15796.2609175704 
1812	 15840.7635021298 
1813	 15877.6602469169 
1814	 15916.7764912293 
1815	 15945.0585924113 
1816	 15979.0110382114 
1817	 16013.9415105198 
1818	 16049.338508001 
1819	 16101.922782249 
1820	 16141.1070994022 
1821	 16180.4935897964 
1822	 16231.0258490525 
1823	 16262.6483770781 
1824	 16275.4402817087 
1825	 16296.3651895042 
1826	 16314.171568478 
1827	 16329.6384106288 
1828	 16342.008584457 
1829	 16359.5584610937 
1830	 16371.021925773 
1831	 16371.5687032759 
1832	 16388.2224715569 
1833	 16403.5481542454 
1834	 16433.707065976 
1835	 16475.0549303593 
1836	 16522.6287079397 
1837	 16584.6020346483 
1838	 16645.115488947 
1839	 16711.6661945182 
1840	 16779.719730922 
1841	 16850.3703898186 
1842	 16930.5399964187 
1843	 16996.519133638 
1844	 17058.7546269208 
1845	 17121.4826076168 
1846	 17176.8372047364 
1847	 17229.8841528645 
1848	 17280.267862764 
1849	 17333.2724503472 
1850	 17395.6882633371 
1851	 17447.085233431 
1852	 17501.3274193038 
1853	 17570.3432569012 
1854	 17621.1305989406 
1855	 17664.8353910631 
1856	 17698.9858141797 
1857	 17730.4640143875 
1858	 17745.5845271244 
1859	 17744.3658890564 
1860	 17720.7151377409 
1861	 17686.0474436176 
1862	 17636.1753517497 
1863	 17594.3212927782 
1864	 17534.6494452197 
1865	 17507.9869668794 
1866	 17478.7243759671 
1867	 17486.5588172689 
1868	 17519.5424258278 
1869	 17577.4916785618 
1870	 17647.3416685613 
1871	 17748.0123342826 
1872	 17867.3279764993 
1873	 18000.193820617 
1874	 18150.9099415165 
1875	 18295.2834879921 
1876	 18417.9442111178 
1877	 18531.997876814 
1878	 18626.3219051577 
1879	 18688.465895739 
1880	 18732.5456492742 
1881	 18765.0797920732 
1882	 18764.8326383539 
1883	 18750.3521364359 
1884	 18739.6758021119 
1885	 18715.5096480582 
1886	 18689.0936058869 
1887	 18661.6451594203 
1888	 18641.8942238868 
1889	 18595.5996397134 
1890	 18539.805607444 
1891	 18470.2142224673 
1892	 18381.6082643248 
1893	 18294.7128999578 
1894	 18204.024757832 
1895	 18131.4880308829 
1896	 18074.3925700614 
1897	 18016.1725119317 
1898	 17968.047976656 
1899	 17923.372396015 
1900	 17878.82732456 
1901	 17834.7068494944 
1902	 17815.3042101192 
1903	 17811.0148653316 
1904	 17822.3132228332 
1905	 17844.1259775043 
1906	 17866.8810712121 
1907	 17881.4070499525 
1908	 17895.5184242907 
1909	 17905.322302002 
1910	 17917.9721502787 
1911	 17936.0130422185 
1912	 17947.1830427926 
1913	 17955.9055296386 
1914	 17957.8251512895 
1915	 17963.384632379 
1916	 17964.4230476401 
1917	 17976.8487571022 
1918	 18015.5509543698 
1919	 18047.3431418948 
1920	 18087.5649250611 
1921	 18126.0953645753 
1922	 18164.02842547 
1923	 18202.0823372574 
1924	 18249.8769490761 
1925	 18284.6290435404 
1926	 18312.803541667 
1927	 18343.9943261201 
1928	 18364.6296517917 
1929	 18381.5838908731 
1930	 18398.7556349576 
1931	 18413.0930958279 
1932	 18431.4211331452 
1933	 18455.8661325099 
1934	 18467.9760416076 
1935	 18474.6982421606 
1936	 18482.665374211 
1937	 18479.8328874434 
1938	 18481.0803794261 
1939	 18485.8581661479 
1940	 18494.7209881935 
1941	 18498.2423313125 
1942	 18499.5552097151 
1943	 18498.8788647346 
1944	 18498.0035193952 
1945	 18492.0110695608 
1946	 18485.7648207154 
1947	 18470.2575585579 
1948	 18446.6577878091 
1949	 18423.8658787455 
1950	 18394.7265233794 
1951	 18364.2660684006 
1952	 18327.9977819088 
1953	 18299.4095998245 
1954	 18268.1813988734 
1955	 18230.4297098451 
1956	 18204.367246448 
1957	 18191.7834678188 
1958	 18163.831754739 
1959	 18140.1361021407 
1960	 18103.2015753755 
1961	 18051.0078895602 
1962	 18000.6650674873 
1963	 17941.5910487831 
1964	 17887.0458940649 
1965	 17834.4518352387 
1966	 17778.6877240979 
1967	 17721.5992256557 
1968	 17666.939896127 
1969	 17606.0343887998 
1970	 17540.7295568646 
1971	 17472.6664768773 
1972	 17403.7401815621 
1973	 17328.5555263634 
1974	 17243.625155424 
1975	 17164.1179192158 
1976	 17080.1655667185 
1977	 17000.3915051212 
1978	 16923.3793299188 
1979	 16851.2219268775 
1980	 16775.2553100406 
1981	 16701.0127435477 
1982	 16622.4447972949 
1983	 16541.9503832418 
1984	 16458.2593725839 
1985	 16371.4503223602 
1986	 16283.9396444723 
1987	 16191.5547163239 
1988	 16105.0209248197 
1989	 16023.6119851349 
1990	 15934.9817410461 
1991	 15850.647472117 
1992	 15755.954725529 
1993	 15649.9547534344 
1994	 15544.0578461285 
1995	 15442.1463731678 
1996	 15338.6036811819 
1997	 15237.7602540236 
1998	 15142.0930073531 
1999	 15043.4979319699 
2000	 14941.22749417 
2001	 14842.4883336792 
2002	 14744.9863998756 
2003	 14649.3227944003 
2004	 14554.4701446225 
2005	 14464.2569348125 
2006	 14377.5846941028 
2007	 14283.7737434435 
2008	 14188.7229878594 
2009	 14094.874742561 
2010	 13997.9160449538 
2011	 13894.736090684 
2012	 13798.0118239324 
2013	 13705.0331238233 
2014	 13609.3176223538 
2015	 13512.8867852428 
2016	 13419.2828230014 
2017	 13321.2861402694 
2018	 13231.541197319 
2019	 13149.9589955388 
2020	 13066.3602612268 
2021	 12994.8942184179 
2022	 12903.7045844096 
2023	 12801.6470638562 
2024	 12710.6666769137 
2025	 12617.0307915503 
2026	 12517.4219097278 
2027	 12429.3415438151 
2028	 12344.9472207772 
2029	 12266.6647520814 
2030	 12197.0586826139 
2031	 12122.2443979978 
2032	 12051.3768520519 
2033	 11979.0789133144 
2034	 11906.6718099702 
2035	 11833.2667616715 
2036	 11764.0965318829 
2037	 11696.8205244497 
2038	 11631.3570239497 
2039	 11572.7305796114 
2040	 11514.8726231186 
2041	 11469.7564197053 
2042	 11417.2760617514 
2043	 11364.1250351952 
2044	 11308.3497074181 
2045	 11246.6104844598 
2046	 11188.7026098724 
2047	 11132.8734292152 
2048	 11075.5279088482 
2049	 11014.2058178223 
2050	 10965.6902946698 
2051	 10918.4407724233 
2052	 10864.9367984152 
2053	 10828.2745150659 
2054	 10789.6652587957 
2055	 10750.584815743 
2056	 10726.3507373298 
2057	 10687.3047722471 
2058	 10648.4228470862 
2059	 10603.9531535034 
2060	 10544.7985309405 
2061	 10494.9547636059 
2062	 10445.7828316071 
2063	 10398.8287962227 
2064	 10354.5757928357 
2065	 10318.9697030386 
2066	 10269.6302438701 
2067	 10212.4583561398 
2068	 10157.7346770149 
2069	 10083.6728705167 
2070	 10018.3719510004 
2071	 9973.34708319441 
2072	 9917.78558829763 
2073	 9871.51828412211 
2074	 9822.84463381714 
2075	 9770.54925914528 
2076	 9721.49046288918 
2077	 9670.87289478509 
2078	 9625.37412138 
2079	 9587.98925289683 
2080	 9537.87505789467 
2081	 9483.17372764766 
2082	 9433.3514385398 
2083	 9378.48543920417 
2084	 9331.73653120743 
2085	 9281.38800366436 
2086	 9229.23293284741 
2087	 9172.11302906715 
2088	 9121.78809523123 
2089	 9091.4026078468 
2090	 9056.52454754259 
2091	 9019.38267627099 
2092	 8970.98276876978 
2093	 8912.25503685497 
2094	 8850.91289328302 
2095	 8796.7589004796 
2096	 8752.40187727339 
2097	 8700.21929830672 
2098	 8646.00676288918 
2099	 8595.39094844431 
2100	 8535.84642896068 
2101	 8466.72561698461 
2102	 8401.33037940435 
2103	 8336.51471479672 
2104	 8278.01001221327 
2105	 8220.6876034134 
2106	 8164.24845635418 
2107	 8104.44780440352 
2108	 8039.27456736375 
2109	 7973.53269602123 
2110	 7912.26154603451 
2111	 7861.79729860266 
2112	 7813.21599154775 
2113	 7756.95095449797 
2114	 7698.25715903601 
2115	 7635.47102518389 
2116	 7570.30631619626 
2117	 7497.23864183854 
2118	 7435.50470799927 
2119	 7376.97396621315 
2120	 7316.10855711416 
2121	 7264.98598024715 
2122	 7214.88345278656 
2123	 7169.39400787998 
2124	 7123.40187442335 
2125	 7083.47132672986 
2126	 7041.36497046279 
2127	 6988.65561779335 
2128	 6941.53048989188 
2129	 6881.32669252932 
2130	 6826.8475396096 
2131	 6787.12550894215 
2132	 6743.83331925779 
2133	 6712.30784178777 
2134	 6683.36380294059 
2135	 6651.9489186109 
2136	 6621.51351895245 
2137	 6588.93621590938 
2138	 6547.35946625739 
2139	 6517.6648747267 
2140	 6492.3481573099 
2141	 6467.6112931213 
2142	 6449.71508789146 
2143	 6444.75805004863 
2144	 6424.80184495979 
2145	 6404.70987292391 
2146	 6398.48185724899 
2147	 6390.09709187488 
2148	 6393.83238977128 
2149	 6407.91967171679 
2150	 6412.96125099634 
2151	 6427.58461655293 
2152	 6450.77426572108 
2153	 6472.59097386758 
2154	 6506.97476913595 
2155	 6552.9411288891 
2156	 6603.44297602647 
2157	 6661.48352102776 
2158	 6713.6466125714 
2159	 6768.98219719392 
2160	 6811.15836411071 
2161	 6845.01691589173 
2162	 6878.4481343925 
2163	 6905.56136147962 
2164	 6934.67162714862 
2165	 6959.42345918684 
2166	 6972.67456588094 
2167	 6988.09479684039 
2168	 7001.33464956327 
2169	 7013.891148295 
2170	 7037.02346610903 
2171	 7054.02253185573 
2172	 7070.89787721628 
2173	 7094.12313192841 
2174	 7122.28097667206 
2175	 7158.42850629905 
2176	 7193.42312481299 
2177	 7229.08117475608 
2178	 7263.39105054338 
2179	 7294.8260879061 
2180	 7331.09412329298 
2181	 7368.00850036121 
2182	 7394.20728451428 
2183	 7410.00293767682 
2184	 7412.28634022514 
2185	 7413.64062096804 
2186	 7403.63139866668 
2187	 7398.92230294711 
2188	 7392.48038638967 
2189	 7392.17439404042 
2190	 7389.34222763895 
2191	 7377.34752156437 
2192	 7360.19033918075 
2193	 7334.9702178576 
2194	 7299.84788186796 
2195	 7262.80460667853 
2196	 7236.6114810052 
2197	 7202.65433722537 
2198	 7167.26909122129 
2199	 7141.14023741403 
2200	 7116.23951765925 
2201	 7105.43113383925 
2202	 7107.46672350099 
2203	 7108.52954173427 
2204	 7103.07246980913 
2205	 7095.75838066013 
2206	 7079.56799937994 
2207	 7071.05805482919 
2208	 7065.35927272036 
2209	 7048.19655381822 
2210	 7035.0425222628 
2211	 7018.40283260944 
2212	 7004.50334275077 
2213	 7000.63445391328 
2214	 6988.23850959998 
2215	 6975.09846480739 
2216	 6955.75986765987 
2217	 6924.21780131834 
2218	 6893.66022505643 
2219	 6861.65290702007 
2220	 6829.61280690913 
2221	 6790.36164717379 
2222	 6751.3824336132 
2223	 6705.05322062065 
2224	 6665.57583191906 
2225	 6630.15194948435 
2226	 6589.10946136472 
2227	 6542.03532596944 
2228	 6487.33932774748 
2229	 6440.77806324182 
2230	 6390.68754478624 
2231	 6339.3328757532 
2232	 6303.77625806356 
2233	 6266.75523835823 
2234	 6225.739868978 
2235	 6188.59641073053 
2236	 6139.2913812987 
2237	 6078.34207638021 
2238	 6020.74115254809 
2239	 5974.4911589875 
2240	 5940.07045052646 
2241	 5906.7059240398 
2242	 5880.50171373512 
2243	 5849.10922350012 
2244	 5815.03432343664 
2245	 5776.31755655642 
2246	 5731.41591682192 
2247	 5692.98606445709 
2248	 5651.43262170086 
2249	 5617.03911341061 
2250	 5597.08365683073 
2251	 5562.05120364601 
2252	 5518.61864101066 
2253	 5482.77001096918 
2254	 5438.97044472479 
2255	 5408.27139613181 
2256	 5388.45988102395 
2257	 5371.11719984031 
2258	 5348.72725607594 
2259	 5322.89266693701 
2260	 5294.66847362358 
2261	 5257.4033132937 
2262	 5226.86994728651 
2263	 5200.1432119276 
2264	 5174.41997948599 
2265	 5156.32991451966 
2266	 5132.07460433612 
2267	 5104.30729583772 
2268	 5077.91831083066 
2269	 5043.61953768291 
2270	 5006.02864022555 
2271	 4969.54739138302 
2272	 4928.85433565811 
2273	 4888.39287333125 
2274	 4849.66723895319 
2275	 4820.34702066571 
2276	 4792.13054884675 
2277	 4756.29358871049 
2278	 4722.62878690021 
2279	 4678.85307947791 
2280	 4631.66887625412 
2281	 4586.62509846964 
2282	 4549.5429420005 
2283	 4521.66755360562 
2284	 4496.2746294273 
2285	 4476.88452200527 
2286	 4448.34239234544 
2287	 4416.50864148763 
2288	 4382.32072720255 
2289	 4336.03273700313 
2290	 4304.86753156519 
2291	 4278.36156059325 
2292	 4254.1859790009 
2293	 4245.71199035093 
2294	 4219.2782671702 
2295	 4182.64782232087 
2296	 4152.62646772827 
2297	 4115.54143403173 
2298	 4083.78064966371 
2299	 4059.20010334914 
2300	 4033.93993873283 
2301	 4008.95658747406 
2302	 3982.34586788227 
2303	 3955.6489465097 
2304	 3931.34547411625 
2305	 3904.50861018879 
2306	 3882.51661340822 
2307	 3873.38649728761 
2308	 3851.32377529181 
2309	 3822.91980395356 
2310	 3795.2673953801 
2311	 3761.16579096615 
2312	 3723.99081415526 
2313	 3703.77020455796 
2314	 3677.6405155833 
2315	 3650.06782503439 
2316	 3624.95218128747 
2317	 3602.78041670333 
2318	 3579.01950480439 
2319	 3555.32859502638 
2320	 3530.03116738888 
2321	 3485.7742826053 
2322	 3446.34426874967 
2323	 3407.09084513355 
2324	 3374.88091827037 
2325	 3348.40486312112 
2326	 3315.50605182792 
2327	 3287.38366871013 
2328	 3248.93884295724 
2329	 3210.51993946583 
2330	 3175.66647561514 
2331	 3134.63290084034 
2332	 3096.48284673421 
2333	 3065.86699441739 
2334	 3035.21350965354 
2335	 2997.83153189222 
2336	 2963.84161309691 
2337	 2930.98925873827 
2338	 2887.96973074043 
2339	 2854.44746294945 
2340	 2834.85576662711 
2341	 2802.88379271645 
2342	 2777.49062899629 
2343	 2771.80508524412 
2344	 2751.46508167819 
2345	 2734.10251972606 
2346	 2718.10750751924 
2347	 2673.54946659461 
2348	 2633.98265153353 
2349	 2597.41397096351 
2350	 2563.48188804909 
2351	 2543.74461606683 
2352	 2522.97895231191 
2353	 2507.83987234015 
2354	 2493.66261224861 
2355	 2482.36674868502 
2356	 2468.23514035515 
2357	 2455.0631104868 
2358	 2440.27260276626 
2359	 2408.67666598959 
2360	 2390.85029253882 
2361	 2371.36432295232 
2362	 2342.01323991067 
2363	 2318.76436932386 
2364	 2281.73585980502 
2365	 2242.4914432957 
2366	 2201.78973895196 
2367	 2165.8882278706 
2368	 2153.25568207159 
2369	 2135.08875466174 
2370	 2119.20432914342 
2371	 2118.5281021992 
2372	 2095.92726577004 
2373	 2076.40092276843 
2374	 2067.22048522572 
2375	 2041.83000154482 
2376	 2028.76221345456 
2377	 2022.27501504422 
2378	 2009.004053714 
2379	 1988.73438168984 
2380	 1968.02981004266 
2381	 1948.88262021462 
2382	 1917.43889169631 
2383	 1894.11366162459 
2384	 1869.40217242357 
2385	 1840.89441149932 
2386	 1824.55379892132 
2387	 1813.61753227506 
2388	 1803.79526704347 
2389	 1779.92686040484 
2390	 1755.38328137453 
2391	 1729.95321911749 
2392	 1701.65226252946 
2393	 1691.74782754201 
2394	 1682.31059130381 
2395	 1666.54847781394 
2396	 1662.11872737252 
2397	 1661.12281369843 
2398	 1654.35094390266 
2399	 1647.42242901719 
2400	 1635.41794479127 
2401	 1609.85023311574 
2402	 1585.89593334434 
2403	 1567.91920903556 
2404	 1546.47240492278 
2405	 1525.91755929637 
2406	 1503.07564695997 
2407	 1484.80287764392 
2408	 1471.96712545287 
2409	 1458.63697514136 
2410	 1443.80571260553 
2411	 1424.80915511148 
2412	 1404.60874794351 
2413	 1395.19170104817 
2414	 1388.40309488334 
2415	 1371.91850281488 
2416	 1361.57512527663 
2417	 1337.59331992157 
2418	 1313.16425839723 
2419	 1302.54084015673 
2420	 1287.87506320428 
2421	 1287.52938815823 
2422	 1284.58236063946 
2423	 1280.17169990921 
2424	 1281.27602519196 
2425	 1267.52114019814 
2426	 1253.92499940344 
2427	 1240.55537254576 
2428	 1216.76929505703 
2429	 1200.37733369882 
2430	 1180.39488408966 
2431	 1153.97056249318 
2432	 1135.44975618118 
2433	 1113.02371968883 
2434	 1095.73987839231 
2435	 1084.79491818813 
2436	 1074.10227755078 
2437	 1061.87745396906 
2438	 1055.75410990672 
2439	 1048.18175193795 
2440	 1031.91312729724 
2441	 1020.30495491359 
2442	 1002.43712756261 
2443	 990.002409054381 
2444	 988.756223325288 
2445	 982.093104724114 
2446	 969.498729064465 
2447	 959.254284799324 
2448	 948.361406785035 
2449	 939.760667082325 
2450	 945.765749759079 
2451	 947.465217404377 
2452	 939.205995532893 
2453	 937.507732442288 
2454	 935.609250567287 
2455	 929.675798978999 
2456	 936.247524540881 
2457	 938.591912636186 
2458	 925.064547669941 
2459	 914.59475919262 
2460	 892.666707475974 
2461	 863.398234608896 
2462	 847.827723465362 
2463	 837.963212194038 
2464	 826.759502682858 
2465	 818.02420870833 
2466	 799.74670303726 
2467	 767.634258278577 
2468	 745.355057970846 
2469	 737.778133317374 
2470	 744.744748325501 
2471	 747.088651006407 
2472	 749.897914506324 
2473	 750.827438380645 
2474	 734.950400938911 
2475	 720.467764160981 
2476	 706.224565520489 
2477	 690.694755464656 
2478	 692.839919742153 
2479	 694.59862938639 
2480	 699.693491693997 
2481	 707.525558123984 
2482	 695.550695949054 
2483	 679.733780828049 
2484	 667.072186191087 
2485	 647.216131084816 
2486	 627.044105509419 
2487	 608.97987262011 
2488	 589.747212568881 
2489	 580.505482006518 
2490	 577.818831369967 
2491	 580.849337304119 
2492	 588.882466917551 
2493	 588.415657360228 
2494	 586.934960776794 
2495	 568.734246636005 
2496	 547.955274430511 
2497	 532.56322151042 
2498	 507.80011560595 
2499	 506.809905028879 
2500	 500.828167598141 
