Wavelength	1mm_grayABS00000.asd
350	 0.932563196892847 
351	 1.4165709811056 
352	 2.56995401078886 
353	 2.71026110102097 
354	 1.98324771194834 
355	 1.01648223647061 
356	 0.327879145159025 
357	-0.468331807095494 
358	 0.837593450968068 
359	 3.00537805370063 
360	 1.95564383120127 
361	 0.487226842833435 
362	-0.289259181286571 
363	-8.93245657216576E-02 
364	-0.653348911330145 
365	 0.37209588558487 
366	 2.30295736052741 
367	 0.374843997216714 
368	 0.357308227283044 
369	 1.12471367764166 
370	-1.16108590092448E-02 
371	-0.123906771419049 
372	 1.15834333226661 
373	 2.82608755979271 
374	 1.26417745045625 
375	 0.841541702679242 
376	 1.30528691764667 
377	 0.358832141301188 
378	-0.29736329628459 
379	-0.256438310642436 
380	 0.513548342127401 
381	 1.95883247269518 
382	 0.906792163117412 
383	-1.03918918762781 
384	 1.80405056283548 
385	 1.60720879926974 
386	 0.498093131537845 
387	 1.83891989683588 
388	 1.98319346833202 
389	 2.4942964447818 
390	 3.32396513111284 
391	 1.43096759581742 
392	 0.649085499179247 
393	 0.492622000270174 
394	-0.844517273341029 
395	-1.03110209135168E-02 
396	 1.73364014663539 
397	 2.75014140287097 
398	 1.67959070542481 
399	 1.60530613781028 
400	 2.13424556652193 
401	 0.314590347340817 
402	 0.738310714923232 
403	 2.04111602505075 
404	 1.99007109574055 
405	 1.34272996703584 
406	 1.00765040652196 
407	 1.04375546332451 
408	 0.166461557774009 
409	-0.534278758044713 
410	-0.217430192950257 
411	 1.47118289327904 
412	 0.64844235822341 
413	 9.49884766938264E-02 
414	 1.32226893853523 
415	-0.687651214915159 
416	-0.383044917714758 
417	 1.82727209229461 
418	 0.329344311535883 
419	-1.76034096908295E-02 
420	 0.392739167142231 
421	 0.190402531006005 
422	 0.922489273585358 
423	 0.914221621816243 
424	-1.41168774034022E-02 
425	 1.30244200071343 
426	 2.32338791004258 
427	 2.01225226742662 
428	 0.234979734591213 
429	 0.520680170371879 
430	 1.01888228601762 
431	 0.149002203934305 
432	 1.57237701878281 
433	 2.02850118099772 
434	 1.02990663802588 
435	 1.81695693960819 
436	 1.70365936903593 
437	 0.952888467500558 
438	 0.803159265082762 
439	 0.950161409791319 
440	 0.870844626460208 
441	 0.395321060324007 
442	 0.52095363901816 
443	-0.345560160755661 
444	-1.64819310568199 
445	-0.864744833384835 
446	-9.82082765033197E-02 
447	 0.258774747281697 
448	 0.386868605694874 
449	 1.0548673488367 
450	 1.1954269838136 
451	 0.286478194110022 
452	-1.14171584993359 
453	-0.102838759694158 
454	 2.08709331652241 
455	 1.14130628398379 
456	 6.51713534525012E-02 
457	-0.314245972817953 
458	 0.175789799757985 
459	 1.0395439046046 
460	 1.53008774815363 
461	 1.29830568579863 
462	 0.420907469086075 
463	 0.929731602358515 
464	 1.96197410022307 
465	 1.0944764244148 
466	-0.36269281306492 
467	-0.808790217870181 
468	 0.481501325187572 
469	 0.484302957870736 
470	 0.485829741538898 
471	 1.10152678265789 
472	 1.94453766192913 
473	 1.04902555174541 
474	-0.153473505561137 
475	 1.11936779395729 
476	 0.553302677460968 
477	-0.149372770284693 
478	 0.535170863168607 
479	-0.482160531269177 
480	-1.45538062638316 
481	-1.4769307738878 
482	-0.739294139307853 
483	 8.21191834152754E-03 
484	 0.213223275684945 
485	-0.412728627739498 
486	-0.347615784064912 
487	 0.557703643749431 
488	 1.78746960019046 
489	 1.54396542316565 
490	 0.396406272799757 
491	-0.664787005106249 
492	 0.103843998361432 
493	-0.348467208321161 
494	-1.53174275374998 
495	-1.56441871529518 
496	-0.843442455948795 
497	-0.146778632655228 
498	-0.102816753563174 
499	-0.792176615692217 
500	-0.529985768615332 
501	 0.608356646332028 
502	 0.273710646651817 
503	-0.975486065257724 
504	-1.47584113671065 
505	 0.50482260389076 
506	-0.181890189649315 
507	-1.3042362078136 
508	-0.710335041959218 
509	-0.597611230597625 
510	-0.768905842170634 
511	-0.853619412905553 
512	-0.213293802168348 
513	 0.615609824735413 
514	 0.731466367657592 
515	-0.718469777660126 
516	-1.23858773993165 
517	-1.0656176604438 
518	-0.942761788844731 
519	-1.70992567797182 
520	-1.85235061509227 
521	-1.20504679365083 
522	-1.72834560151711 
523	-0.659218648131091 
524	 1.08502518069905 
525	 0.914631673409971 
526	-0.970164053540484 
527	-2.47052849935142 
528	-1.98243071885337 
529	-1.25034277847002 
530	-0.81495117133665 
531	-0.507809135149585 
532	 1.20738358615748 
533	 1.04608056575387 
534	-0.618931242095244 
535	-1.50751982252825 
536	-2.33432145590833 
537	-2.71029212919388 
538	-2.19684994025663 
539	-0.612755390226172 
540	-6.04374677792302E-02 
541	-1.11349144825108 
542	-1.56861209300096 
543	-1.81729442243126 
544	-1.54120843273771 
545	-0.200381148011449 
546	-0.861220872237663 
547	-2.01212954509759 
548	-1.53750092459923 
549	-0.586391019791697 
550	 9.65527442099841E-03 
551	-3.83515368923736E-02 
552	 8.79482315932063E-02 
553	-0.584383930351423 
554	-1.5333702443614 
555	-1.10987532792516 
556	-0.816730604789822 
557	-0.45071095782599 
558	 0.356299610783568 
559	-0.19865799953633 
560	-0.298373657384547 
561	 0.642810382686987 
562	-0.941783826435759 
563	-1.10030104150146 
564	 0.529194520420878 
565	 1.08121475620162 
566	 0.578492844507896 
567	-0.353576145330887 
568	-0.750742009390466 
569	-6.85906885232278E-02 
570	 0.475073266131029 
571	 0.183067551750151 
572	 0.734748239175805 
573	 0.266842628580312 
574	-1.250974476734 
575	-1.6333815891527 
576	-2.14716679251091 
577	-2.70288689661958 
578	-2.63560205524178 
579	-0.314714449977643 
580	 0.685408185172831 
581	-1.8362627395732 
582	-2.02166529221892 
583	-1.88004290573919 
584	-2.09720745935007 
585	-1.03609802827809 
586	-5.08516024056354E-03 
587	 0.48575018711107 
588	 0.269438565387288 
589	-0.671314170544674 
590	-1.501736337799 
591	-1.50776929907304 
592	-1.44728609580223 
593	-0.870149641551922 
594	-2.54726709851395E-02 
595	-0.970101032750011 
596	-0.188366687297568 
597	 1.29673743865428 
598	-0.577933355981952 
599	-0.7750967954348 
600	-0.324001429204355 
601	-1.31341619491055 
602	-1.79195870904545 
603	-2.02389606202588 
604	-2.12916935915837 
605	-1.20246315998146 
606	-1.29068581374855 
607	-2.10149613797884 
608	-1.14385020809862 
609	-1.17582834762149 
610	-1.55817085814364 
611	-0.875571008030676 
612	-1.5346352214655 
613	-1.6762905415447 
614	-0.273133497011782 
615	-0.396824307298507 
616	-0.430828783730928 
617	 1.42993660978513E-02 
618	-0.121029744646043 
619	-0.59992167018117 
620	-1.50190912042632 
621	-2.72336478117027 
622	-0.660153407970409 
623	 1.26356359639536 
624	 0.146848338824786 
625	 7.04649083525924E-02 
626	-0.809867686538177 
627	-2.59572649630198 
628	-2.26799225708065 
629	-0.991499908864887 
630	-8.37735558863215E-02 
631	-1.03071218005392 
632	 0.163718097469389 
633	 0.517382243891523 
634	-2.62472171830168 
635	-2.04310048000352 
636	-0.892499066537338 
637	-1.01892520206334 
638	-0.410717281367275 
639	-5.14252449333757E-02 
640	-6.54039479884216E-02 
641	-0.043082191881876 
642	-1.59230175539571 
643	-2.88334603679169 
644	-1.75802213738541 
645	-1.01121716521937 
646	-0.628755706454317 
647	-0.493345916931349 
648	-0.994430106053555 
649	-2.02660250176355 
650	-2.8548486827718 
651	-1.99833526360746 
652	-1.08198382895645 
653	-0.783254294236648 
654	-1.28132113194985 
655	-1.10178001093901 
656	-0.866854043798349 
657	-1.09320188512991 
658	-1.0445887412637 
659	-0.745031140035038 
660	-0.45101756880154 
661	-0.791187618070022 
662	-0.86516993859583 
663	-0.801527189874406 
664	-1.11829129557766 
665	-1.22378378619725 
666	-0.832325449522452 
667	-3.84638701460171E-02 
668	-0.124578692456622 
669	-0.488167961431077 
670	-0.718162492722609 
671	-0.749545734472623 
672	-0.609708001394141 
673	-0.672226927849237 
674	-1.45022888615294 
675	-1.43110550324336 
676	-0.416436177627867 
677	 0.98244379812903 
678	-0.045377899263192 
679	-1.66374817645872 
680	-2.4176953385837 
681	-1.85178403429774 
682	-1.03551796259379 
683	-0.47731896353839 
684	-0.359927282472716 
685	-0.499834265719695 
686	-0.996753730157796 
687	-1.76337936346518 
688	-1.16831309810574 
689	-0.759003224494961 
690	-1.34365222092986 
691	-1.49388735139614 
692	-1.99205438532854 
693	-2.46628697551198 
694	-1.58586136579128 
695	-1.54387427493422 
696	-1.42162011320892 
697	 2.63247208844897E-02 
698	-1.20890787398382 
699	-2.09424449899653 
700	-0.905217814355119 
701	-1.21328096277382 
702	-1.73477944268764 
703	-1.935741072843 
704	-1.89322315384049 
705	-1.43275219938813 
706	-1.23385835751831 
707	-2.05517302604602 
708	-2.48602873526498 
709	-2.42792621187479 
710	-1.64742642649588 
711	 1.76286005906854 
712	 1.80981014085455 
713	-1.33474615206421 
714	-0.340877182255908 
715	 0.959672792049721 
716	 0.906317122010826 
717	-1.18494352047279 
718	-2.1064498981336 
719	-1.5177763305201 
720	-0.19478131240848 
721	-1.00236148184075 
722	-1.29768741068943 
723	-0.747486915717217 
724	-2.07014789768155 
725	-2.19662457465723 
726	-1.03175864356953 
727	 0.162692267413109 
728	-0.655754879963573 
729	-1.31757283150463 
730	-0.247432578687482 
731	-0.284373180620281 
732	-0.646023147495839 
733	-0.964499285560067 
734	-1.4481161240537 
735	-2.20314853421847 
736	-2.20304370468408 
737	-0.316859817994628 
738	-1.09610259874781 
739	-1.87092129500353 
740	-0.432704969778671 
741	-0.675200886221325 
742	 0.333622291001074 
743	 2.3602677937968 
744	 0.555509865622769 
745	-0.422613962203719 
746	-0.772948614082989 
747	-2.35651168077103 
748	-1.79691701748447 
749	-0.314329226395169 
750	 0.441134398675423 
751	-0.13903327435252 
752	 2.24143530204731E-02 
753	 0.84547633314219 
754	-0.760609433879285 
755	-1.23146590853969 
756	-0.448743582571839 
757	 0.19237311063925 
758	-1.24624443829741 
759	-1.24862747881392 
760	 1.6320463931803 
761	-0.895847158798172 
762	-1.70587973335455 
763	 0.329462330006415 
764	-0.905472035848344 
765	-1.15781792277738 
766	-0.167384093190654 
767	 0.85016517105563 
768	 0.84732031992928 
769	-0.551396138862442 
770	-2.72431033480327 
771	-2.70689439281224 
772	-1.32676446034478 
773	 0.14594364589857 
774	-0.175881515114851 
775	-0.836815287112286 
776	-1.01491466639727 
777	-0.374206247385973 
778	-1.0492623809702 
779	-1.68924769358446 
780	-1.29906081570366 
781	-0.528982538048137 
782	-0.233927644051499 
783	-0.886096890452637 
784	-2.61369137243502 
785	-2.18457456108876 
786	-1.04077341841005 
787	-1.34126959004132 
788	-0.492237674156505 
789	-0.082484085743041 
790	-0.698980052274033 
791	-0.237302412476188 
792	-4.66431668810412E-02 
793	-0.185233603431291 
794	-4.27003956068196E-03 
795	-0.346461829261105 
796	-0.582583908821953 
797	-0.138528010204264 
798	 7.56346193513487E-02 
799	-1.31078826146745 
800	-3.47080740169101 
801	-1.88677940841826 
802	 8.47356050424707E-02 
803	 1.00761074455284 
804	 0.371919316521365 
805	 0.591706836463777 
806	 0.109368636440368 
807	-1.77259650305004 
808	-0.971753810066862 
809	 1.04994007259824 
810	 2.22772032663763 
811	-0.373491268418016 
812	-1.74408771107838 
813	-1.89890423057931 
814	-2.31740371720731 
815	-2.16882377782469 
816	-1.06423838629788 
817	 0.449444633594067 
818	-0.465318105006872 
819	-0.303978871198426 
820	 0.449781203530051 
821	-1.21619952711432 
822	-1.96574140042054 
823	-1.61553382827867 
824	-0.851119148239512 
825	-0.740347196535308 
826	-1.11307873529485 
827	-1.42335699434245 
828	-0.498897392834585 
829	-0.721471785256714 
830	-1.16834446768878 
831	-8.37247994473923E-03 
832	-0.95801774029379 
833	-1.79849109369312 
834	-1.00023233024147 
835	-0.856568908385679 
836	-0.372854207470125 
837	 0.168019357470258 
838	-0.488342998911152 
839	-1.80327189416537 
840	-1.5794815955569 
841	 1.23510946677703 
842	 0.378660296337728 
843	-0.768806154548692 
844	-0.462393937544768 
845	 4.48346410188459E-02 
846	 2.89438175978412E-02 
847	-0.578922420580815 
848	-1.37370486214052 
849	-1.08670067559023 
850	-0.896458699827033 
851	-1.48713654740942 
852	-1.56517201198842 
853	-0.708404177338367 
854	 9.81070042750052E-02 
855	-1.10950374638073 
856	-8.26332810919828E-02 
857	 0.263871841663818 
858	-2.42920057843393 
859	-1.21656361677967 
860	-0.226359108784262 
861	-1.08189219796727 
862	-1.9381229029267 
863	-2.32721054920649 
864	-1.96368737078307 
865	-0.905047869115116 
866	-0.128353268653048 
867	-0.7231310552775 
868	-2.1536255527384 
869	-0.392008301758676 
870	 0.694250687186423 
871	 0.652611274248512 
872	 0.625424793146719 
873	-0.2889972295162 
874	-0.953408604353505 
875	-0.588662024731431 
876	-0.101420486525266 
877	-0.585472867978827 
878	-1.50221645311869 
879	-1.00880665201905 
880	-1.15626466966046 
881	-0.649682553901917 
882	 1.30511579522315 
883	 0.488932732166109 
884	-1.40663749955984 
885	-2.48067626892498 
886	-0.640178976490965 
887	-1.24210253221023 
888	-2.42193559271879 
889	-1.11469641092964 
890	-1.33345396938886 
891	-0.910039874709993 
892	 0.566669476673743 
893	 0.14328935438789 
894	-1.10396886351082 
895	-1.64824266525282 
896	-0.250787993201021 
897	-0.190686752758648 
898	-0.850125709527401 
899	-1.31205735447269 
900	-0.747338198553315 
901	-0.623948581143664 
902	-1.0116953821256 
903	-1.25197563837033 
904	-0.53614579169387 
905	-0.34678233732176 
906	-1.10739388270801 
907	 0.290591051081342 
908	-9.72632422636096E-02 
909	-1.40915564539932 
910	-0.355921829482493 
911	-1.65707696112796 
912	-2.14566561388589 
913	 0.259627614607533 
914	 1.67046160424393 
915	 0.993659730883449 
916	-0.761329484104902 
917	-1.11157960772732 
918	-1.26246737594922 
919	-0.470373904772134 
920	 1.23045707043214 
921	 0.619238846502794 
922	-0.249090201449493 
923	-0.256230816093771 
924	 0.852147404499196 
925	-0.557296769562954 
926	-1.47091263002682 
927	 0.334123730551494 
928	 0.850362231993625 
929	 0.540235353965776 
930	-0.223891598477041 
931	-1.01916105337602 
932	-0.546318526154536 
933	-0.160048494470905 
934	-0.960596047440604 
935	-1.88847511853476 
936	-1.6196285533092 
937	-0.523786799494882 
938	-0.237289533819 
939	-1.35230870902871 
940	-1.47789623577384 
941	 0.216409649797831 
942	-1.5522690789824 
943	-1.86199729210233 
944	-1.17654908910414 
945	-2.93967817056114 
946	-1.44002253404083 
947	 9.75328658296365E-04 
948	-0.867556053439836 
949	 3.38455128421624E-02 
950	-6.37764705244747E-02 
951	-0.797421365240706 
952	-0.354440899329366 
953	 1.29387031788552E-02 
954	-1.02826004571644 
955	-2.98975526123886 
956	-1.22739298704699 
957	-1.09304325918901 
958	-1.5283524135017 
959	 0.451439567198562 
960	 0.285526458688163 
961	-0.541430715066989 
962	-1.01445888070135 
963	-1.91631689818917 
964	-1.39622130794483 
965	-0.3267598803636 
966	-2.03577646761425 
967	-3.27495815970286 
968	-3.39659584524407 
969	-2.03234302440066 
970	 1.10027476999782 
971	 1.4576618422185 
972	 2.58719187016334 
973	 3.04693774973184 
974	-8.87166673021548E-02 
975	-0.149687053571777 
976	 2.97436727179945 
977	 3.26385014351219 
978	 1.17273598031604 
979	 0.792116677627415 
980	-1.56523600918233 
981	-3.92094240682066 
982	-2.36318026493403 
983	-0.508487222316334 
984	 0.214959316418122 
985	 2.36391288166107 
986	 2.20709344586713 
987	-0.630948864685052 
988	-1.41239982944166 
989	-2.00727846535923 
990	-3.75585998753698 
991	-6.40321309986048 
992	-6.85796065031854 
993	-8.11933055294723 
994	-6.26979917130912 
995	-3.20901285313621 
996	 2.0790010153725 
997	 7.69322816377087 
998	 8.63493938578005 
999	 9.2266514824305 
1000	 10.880496549351 
1001	 7.32082870778501 
1002	 4.64218148151386 
1003	 5.76717779095085 
1004	 3.38834659296892 
1005	 1.30634710403811 
1006	 5.99814005157499E-02 
1007	 0.180635283770813 
1008	 0.154277043555283 
1009	-1.46498167855293 
1010	-0.62219382851606 
1011	-0.613508602641156 
1012	-2.2972771277911 
1013	-2.02925889236706 
1014	 0.545609500060305 
1015	 1.59929353956758 
1016	 0.544238112284581 
1017	 0.140793209684473 
1018	-2.7663454503563 
1019	-6.25218042842918 
1020	-9.84036432094628 
1021	-13.6409033398075 
1022	-14.7529997817727 
1023	-15.1590007618777 
1024	-14.6999951804348 
1025	-12.3678186165845 
1026	-8.88964825865239 
1027	-8.63655847150719 
1028	-9.29069356871135 
1029	-7.62979130239783 
1030	-7.41177146953723 
1031	-3.54074938918482 
1032	 3.63676223232899 
1033	 2.09253253915764 
1034	 3.25554627960785 
1035	 7.07003102208275 
1036	 3.76281979964049 
1037	 3.48303466470767 
1038	 3.26659084596356 
1039	-4.11473638287478E-02 
1040	-1.68002436152821 
1041	-0.416196121871766 
1042	-0.121963730596893 
1043	 0.304706812776984 
1044	-2.09990582044771 
1045	-1.28382186248296 
1046	-1.64015873984376 
1047	-3.05818003906 
1048	-2.74434620354748 
1049	-2.80885703021219 
1050	-3.39062279691629 
1051	-4.81529484996818 
1052	-3.45758468041826 
1053	-3.822308877514 
1054	-5.46318095872874 
1055	-4.00308712251949 
1056	-5.66055744900365 
1057	-5.31461701426634 
1058	-2.5136354649294 
1059	-2.0982601396384 
1060	-1.78911768636462 
1061	-2.5638025607343 
1062	-5.5018157828393 
1063	-8.39138330252682 
1064	-8.99359361011367 
1065	-7.31480786416305 
1066	-6.33990452425398 
1067	-5.09674786164572 
1068	-2.51174680700482 
1069	-1.69686619434966 
1070	 1.24284167573181 
1071	 3.09109216149908 
1072	 2.57725263311004 
1073	 2.37815691962075 
1074	 1.75452762848284 
1075	 1.00411399127557 
1076	 0.434239176985114 
1077	-1.25434848288848 
1078	-1.54672054857542 
1079	-1.89129650811329 
1080	-1.55186903683469 
1081	 1.42129799087634 
1082	 1.82921547831873 
1083	 1.04767098755585 
1084	 1.2447296060616 
1085	-1.45453779114314 
1086	-1.42416785659972 
1087	 1.12635533430303 
1088	 3.29230798424227 
1089	 4.68432401541637 
1090	 4.29521291540526 
1091	 5.16845454392897 
1092	 5.41714446783445 
1093	 5.51339231054821 
1094	 6.81908670373717 
1095	 6.8489145467104 
1096	 4.74123177304141 
1097	 3.45008765762101 
1098	 2.72730333327355 
1099	 1.90388799740802 
1100	 0.165628349255835 
1101	-0.250629722861364 
1102	 0.482176196725269 
1103	 0.995449651819186 
1104	 2.03305541747535 
1105	 3.22808103398235 
1106	 4.7028875823219 
1107	 3.0038456587 
1108	 0.530011022926696 
1109	-0.755306803808425 
1110	-1.84206735540282 
1111	-3.13814036717839 
1112	-3.72635466530823 
1113	-3.42429448978212 
1114	-3.40355026600544 
1115	-3.3923334668707 
1116	-3.26941701724469 
1117	-2.81544145388924 
1118	-2.51399069075243 
1119	-1.96936753823745 
1120	-2.0516340936278 
1121	-2.96455051957286 
1122	-2.75318542726487 
1123	-2.07661136402902 
1124	-1.81233078504389 
1125	-2.74253904758589E-02 
1126	-0.231802369238901 
1127	-0.57711801750256 
1128	-2.23553555261984 
1129	-2.74792962495076 
1130	-4.14901792379507 
1131	-2.5609936133789 
1132	 1.58047922007125 
1133	 3.08843527308549 
1134	 6.59002147170479 
1135	 6.32546212579973 
1136	 2.01233972025652 
1137	-0.269116966189539 
1138	-3.80746310587041 
1139	-5.81085570769082 
1140	-8.45166183570247 
1141	-7.94047296658329 
1142	-4.13753252210091 
1143	-1.81222769300035 
1144	 4.41359993250901 
1145	 6.53534975076111 
1146	 5.1788336884056 
1147	 3.90102367091899 
1148	 1.56593299960515 
1149	-3.72283112992533 
1150	-5.12171845565241 
1151	-6.30847864783573 
1152	-4.93807727225923 
1153	 0.487191779117584 
1154	 1.8827548713649 
1155	 2.56183344744924 
1156	 4.11138248322285 
1157	 5.21491182682396 
1158	 4.89120887121597 
1159	 5.24811863732368 
1160	 4.56270966672369 
1161	-0.608767833250519 
1162	-1.72352480077443 
1163	 3.94646543759494E-02 
1164	 0.869112279549107 
1165	 4.3053982064678 
1166	 5.01734659638057 
1167	 4.35259077362094 
1168	 2.55266255316349 
1169	-0.947008621073674 
1170	-2.45909684040431 
1171	-3.24936190874715 
1172	-3.10864746886175 
1173	-2.69499952015564 
1174	-0.747638070563942 
1175	-0.957862665895311 
1176	-2.37485417724058 
1177	-2.16929899019479 
1178	-2.15821880407363 
1179	-1.64078348653709 
1180	 0.677043348645307 
1181	 1.36859939769287 
1182	 1.5058100126961 
1183	 1.07741775080413 
1184	-1.18302355490648 
1185	-1.25626487536127 
1186	-1.78223559118895 
1187	-0.457307081779715 
1188	 6.10302481864924 
1189	 7.89475825018992 
1190	 7.94864386649358 
1191	 7.39839222984581 
1192	 5.60774187421573 
1193	 1.58771937744732 
1194	 0.533197681926417 
1195	 0.809658198584887 
1196	-0.594638965612241 
1197	-3.62698669854122 
1198	-3.22170767219705 
1199	-2.06911654812293 
1200	-1.21928385814348 
1201	 2.24067775354527 
1202	 3.61749580793412 
1203	 3.89343460017735 
1204	 4.34703004069625 
1205	 3.87784103861023 
1206	 4.29890125896098 
1207	 5.29828285002393 
1208	 5.43228857367021 
1209	 5.96643062893865 
1210	 6.32459233005257 
1211	 6.91203054588264 
1212	 4.90655925584973 
1213	 3.64618059960091 
1214	 0.675294016243588 
1215	-2.81795720593833 
1216	-4.49108045462691 
1217	-3.3857976826464 
1218	-2.71297434343348 
1219	-0.60570023583997 
1220	 3.80339141450462 
1221	 4.94194910265498 
1222	 5.72105287793567 
1223	 5.31744772181264 
1224	 1.20073207650091 
1225	 0.445332040993139 
1226	 0.384785166165823 
1227	 0.612813277494553 
1228	 2.96602271508696 
1229	 3.74806641780106 
1230	 5.10472775678723 
1231	 4.59169675642585 
1232	 2.62725329968374 
1233	 0.562102090317512 
1234	-5.18146258498181 
1235	-7.49620931885739 
1236	-8.89189124828205 
1237	-7.90682295043673 
1238	-4.93041362247924 
1239	 0.297209365913222 
1240	 1.96574900225427 
1241	 2.06112766969116 
1242	 1.66608451900139 
1243	-2.97366751305376 
1244	-4.88691332953586 
1245	-4.17704575641205 
1246	-3.47807659863884 
1247	 0.243351907404765 
1248	 2.17226794483952 
1249	 3.45395212194258 
1250	 4.41037423681627 
1251	 3.1245054902178 
1252	 3.48873117475581 
1253	 5.98361048013336 
1254	 5.89545055652527 
1255	 3.94986617601653 
1256	 3.53867060857929 
1257	 2.40474369230422 
1258	 1.30967582876223 
1259	 2.35138027906457 
1260	 2.64205492943416 
1261	 1.47778595485547 
1262	 1.73142256275305 
1263	 1.15567916203555 
1264	-1.42938956615045 
1265	-0.625655917473541 
1266	-1.49000214204194 
1267	-1.20946370425585 
1268	 0.566675821179933 
1269	-0.654250793074334 
1270	-0.576149065751138 
1271	-0.409890012162942 
1272	-1.89248275513088 
1273	-0.112923669335181 
1274	 2.19692201307912 
1275	 3.41028827133737 
1276	 7.69566702711342 
1277	 9.27516885667739 
1278	 6.50268085382579 
1279	 5.46407794214067 
1280	 3.65247240316353 
1281	 1.5552424199861 
1282	-0.616426242263585 
1283	-0.578889209879084 
1284	 1.2760460864643 
1285	 0.522406409277115 
1286	-0.799936219792602 
1287	-1.42159882321094 
1288	-3.84599853642359 
1289	-5.65345124994077 
1290	-3.02361802920922 
1291	-2.55074166898347 
1292	-2.81700659273283 
1293	-0.68831284379763 
1294	-0.49371631263564 
1295	 1.40701001784457 
1296	 2.55793736533515 
1297	 1.01630555650191 
1298	 2.36263831182037 
1299	 1.88049784345845 
1300	 1.6842764497704 
1301	 2.98882509564986 
1302	 0.952484234481023 
1303	 2.00237581533608 
1304	 3.43282445848913 
1305	 2.53075336513397 
1306	 3.50903172383155 
1307	 4.11995034374281 
1308	 3.77470395022723 
1309	 4.01937038746105 
1310	 5.32596937803262 
1311	 2.88442245405647 
1312	 0.869412370361657 
1313	-1.30121751195504 
1314	-1.92881885177222 
1315	-3.51647293079363 
1316	-3.29682630242334 
1317	-1.72985590491334 
1318	-1.22424430092105 
1319	-0.798692461775995 
1320	 1.71089714012624 
1321	 1.32958827151174 
1322	 2.27574589795033 
1323	 2.50469844916275 
1324	 2.87966808233834 
1325	 4.90515824933905 
1326	 6.64410485789379 
1327	 5.15660847523813 
1328	 1.33821709247806 
1329	-0.318337809299453 
1330	-1.98077589475645 
1331	-1.2482492330226 
1332	 1.73888295862275 
1333	 0.938071549388926 
1334	-1.24637817905868 
1335	-1.04336596744888 
1336	-0.903317715387362 
1337	-1.39849651868497 
1338	-1.00558907453375 
1339	-2.63266784118821 
1340	-6.23331627532284 
1341	-6.88881656921679 
1342	-5.94353588823053 
1343	-4.56612737932864 
1344	-2.0756868801465 
1345	-0.403402989041263 
1346	-1.69278562733584E-02 
1347	-0.291746484379421 
1348	-2.56219966366448 
1349	-2.36196810239397 
1350	-1.76118820788553 
1351	 0.644344155629902 
1352	 5.44381565898006 
1353	 7.17537411260473 
1354	 9.12788229610991 
1355	 8.98147089017348 
1356	 7.48703795273446 
1357	 8.81016083095176 
1358	 8.01974532406232 
1359	 6.62571722141653 
1360	 6.3723199929692 
1361	 5.75555147350609 
1362	 5.14555511654393 
1363	 4.22477056762362 
1364	 1.76415027433314 
1365	-1.37597359170232 
1366	-1.60126398016913 
1367	 0.967383824342689 
1368	 2.05241159073758 
1369	 1.59466856340275 
1370	 0.151403576615707 
1371	-3.04188472031284 
1372	-5.40813856432607 
1373	-5.23581487156797 
1374	-2.94448626028307 
1375	-0.66757173956514 
1376	 0.78317264980264 
1377	 3.92233580100074 
1378	 4.41510503653972 
1379	 3.08198796572537 
1380	 3.32948921191854 
1381	 2.16611436385773 
1382	 2.02988728693945 
1383	 2.50197558759696 
1384	 3.20177119420619 
1385	 1.25320377086098 
1386	-2.19812080112893 
1387	-2.26262067755024 
1388	-5.47762918100962 
1389	-6.57295698826052 
1390	-4.67750227581969 
1391	-0.152926629228246 
1392	 1.8265110710676 
1393	 7.50610355903356 
1394	 9.01720230908827 
1395	 6.65362990415608 
1396	 7.24736201126637 
1397	 6.47154844626304 
1398	 4.9455739860616 
1399	 6.22676946660422 
1400	 5.2583754144542 
1401	 5.90209168470084 
1402	 7.30700208513905 
1403	 7.9756610897034 
1404	 9.33193250404682 
1405	 6.47685986456037 
1406	 3.8979046600327 
1407	 0.829920736543662 
1408	-4.40555130961513 
1409	-4.86601661907766 
1410	-5.13728919138579 
1411	-5.96000087968387 
1412	-4.51236042851198 
1413	-2.81121044099105 
1414	-1.49726140758909 
1415	-2.73434677316325 
1416	-3.73464839916814 
1417	-3.30797330680908 
1418	-3.77919479887853 
1419	-1.76064381181684 
1420	 0.449747940793616 
1421	 0.356956924371624 
1422	 1.94722012395864 
1423	 6.1751480933443 
1424	 7.93126637663992 
1425	 6.52587775845762 
1426	 6.1273394532782 
1427	 4.20839170699275 
1428	 1.46772213383558 
1429	 2.41607004503361 
1430	 3.88454181596093 
1431	 1.03681292665953 
1432	-2.37035285011577 
1433	-2.96130465880733 
1434	-2.16928692784377 
1435	-2.16783720381584 
1436	 1.10473729235326 
1437	 3.80038375764548 
1438	 0.359836769619649 
1439	 0.286510330410434 
1440	 1.46318268458391 
1441	 6.56940020976794E-02 
1442	 0.647741084574598 
1443	 2.54588999955084 
1444	 1.88158217000279 
1445	 2.99949297917428 
1446	 8.55233603737277 
1447	 9.40621488834489 
1448	 7.1127075543905 
1449	 7.19650121896838 
1450	 4.65880995326279 
1451	 3.89310012529754 
1452	 5.27868094752675 
1453	 7.50411780255351 
1454	 6.63544481793465 
1455	 5.55759763770424 
1456	 6.11965205060615 
1457	 4.95835442963129 
1458	 4.43976284078502 
1459	 5.42886418245557 
1460	 4.43210473629438 
1461	 6.44891090161781 
1462	 7.79421717094924 
1463	 6.27707934967053 
1464	 7.02637591825451 
1465	 5.829773266106 
1466	 4.77079378442795 
1467	 6.00970269638761 
1468	 7.13866730572551 
1469	 5.67414688340936 
1470	 2.99319688437839 
1471	 3.16236655979318 
1472	 3.30594335667392 
1473	 4.88645414321827 
1474	 7.4059586429218 
1475	 6.62949109982426 
1476	 3.60813425756608 
1477	-0.474128639256978 
1478	-4.67544032760657 
1479	-3.9822837713687 
1480	-1.85503450886037 
1481	-3.93282628603914 
1482	-4.06532632816191 
1483	-4.37027991462265 
1484	-7.81035928984042 
1485	-7.22664578156687 
1486	-3.65469569731924 
1487	-0.859600663167816 
1488	 3.06759899616744 
1489	 5.60940104561507 
1490	 4.42922482909627 
1491	 3.07590278946794 
1492	 4.49907434385636 
1493	 4.70515576319808 
1494	 4.03023714493716 
1495	 4.42991103878143 
1496	 1.67724388512489 
1497	-0.973741314459444 
1498	-1.80332232530386 
1499	-1.10548066833868 
1500	 0.695401118598832 
1501	 0.327586748240569 
1502	-1.01295628741157 
1503	-2.73283826281644 
1504	-3.93848956796742 
1505	-1.68608455628917 
1506	 2.71397910310596 
1507	 5.33647037274051 
1508	 3.80844641093165 
1509	 1.45373102418652 
1510	 0.847620823170797 
1511	-0.946367423769727 
1512	-2.94024110936189E-02 
1513	 1.48377994567002 
1514	-0.401057038050737 
1515	-0.763371519210776 
1516	 1.57268774153289 
1517	 5.2749158991187 
1518	 7.09635005629077 
1519	 8.10523089527764 
1520	 7.10305276459103 
1521	 2.45079897595039 
1522	-0.226325764859913 
1523	 0.65773246784587 
1524	 0.281437805578588 
1525	-1.10342833611481 
1526	 1.02772412917171 
1527	 2.29561532340639 
1528	 3.80968508053137 
1529	 8.01367617437561 
1530	 7.52344971880557 
1531	 5.1056613725083 
1532	 4.46230951975297 
1533	 3.36468456200528 
1534	 7.21876656725705 
1535	 13.710731207182 
1536	 14.6691128579072 
1537	 12.0808219081417 
1538	 6.79403501664993 
1539	 0.403135109430673 
1540	-2.14123384559067 
1541	-1.56598231067399 
1542	-1.15886706155332 
1543	-1.51239531110778 
1544	-1.23835768286764 
1545	-1.39795508874073 
1546	-0.651221047077165 
1547	 1.8440649691507 
1548	 4.16134106714107 
1549	 4.69500224262665 
1550	 5.10941103623883 
1551	 6.29108927787671 
1552	 6.31641280031965 
1553	 6.24391116420834 
1554	 5.13742350812809 
1555	 3.82803852166107 
1556	 1.1348076599492 
1557	-1.17340223610753 
1558	 0.623907000454033 
1559	 2.49217257283414 
1560	 2.7060796761951 
1561	 3.97025956032325 
1562	 4.81127680531334 
1563	 4.25002310599334 
1564	 5.06711816988968 
1565	 4.66641729793834 
1566	 2.9820475206367 
1567	 2.37680013621174 
1568	 2.62059472947904 
1569	 4.78116491495111 
1570	 6.51904859429224 
1571	 4.64474722511771 
1572	 3.64353817726535 
1573	 3.32967914221968 
1574	 2.34508276321477 
1575	 3.45813819181597 
1576	 3.65057826293818 
1577	 2.86459766076447 
1578	 1.64144103713 
1579	 0.472193869661031 
1580	-0.382844467832219 
1581	 1.08095356340024 
1582	 3.14981416039378 
1583	 2.94265670466358 
1584	 5.38805835591392 
1585	 6.25317809764235 
1586	 7.08856045893524 
1587	 10.1204526109652 
1588	 8.37778596184307 
1589	 7.05860154895527 
1590	 5.64869530801045 
1591	 2.27481903019739 
1592	 2.11874552789693 
1593	 1.25221873413291 
1594	 0.47439994086318 
1595	 1.17949675462262 
1596	 0.338339784616179 
1597	-0.749064082520646 
1598	-2.06977043287727 
1599	-2.92200263280551 
1600	-1.97655401262083E-02 
1601	 2.46873186497326 
1602	 2.70997508582079 
1603	 3.99300778012612 
1604	 2.5324101224965 
1605	 1.36333887379809 
1606	 2.19487429680605 
1607	 2.29639384818543 
1608	 0.636048612075541 
1609	-1.82809095099093 
1610	-3.05282392307361 
1611	-4.23788078301431 
1612	-3.10147470674889 
1613	-2.73038605232665 
1614	-3.77283731732632 
1615	-4.89814058545438 
1616	-5.16016400742606 
1617	-2.7723951128749 
1618	-1.29116673882737 
1619	-1.06388668911894 
1620	-0.386366917746185 
1621	 0.122016655415171 
1622	-0.174320486951986 
1623	 1.79460905871707 
1624	 2.63068040725921 
1625	 0.413505868232307 
1626	 1.36345402122085 
1627	 1.926249157944 
1628	 0.442892768549677 
1629	 0.337152991885731 
1630	-0.119932412667795 
1631	-0.478851464592047 
1632	-0.353455606848381 
1633	 1.52688977141275 
1634	-0.062631041103822 
1635	 0.714682441278303 
1636	 2.41239716281207 
1637	 4.2470430617892 
1638	 9.9886540526992 
1639	 11.368969378192 
1640	 10.6721040032042 
1641	 9.93170965858808 
1642	 6.85750196791241 
1643	 3.66357637235856 
1644	-2.32696678615899 
1645	-3.80131004218253 
1646	-3.28306825067131 
1647	-2.88855449318569 
1648	 1.39105153421186 
1649	 3.59165371572905 
1650	 4.63769256183081 
1651	 4.74947616886634 
1652	 4.45875685872849 
1653	 4.62236224548523 
1654	 3.17847153932032 
1655	 2.13989512096397 
1656	 1.30250584133346 
1657	 1.40301207739087 
1658	 2.99681030948762 
1659	 2.22680198360565 
1660	 2.37520664514567 
1661	 0.107221143182488 
1662	-8.11113818615816 
1663	-9.55580094212282 
1664	-8.53362111239361 
1665	-7.00371785567344 
1666	-0.901061272946749 
1667	 1.26971307941166 
1668	 2.58667417051687 
1669	 1.675796160306 
1670	-2.37691207585165 
1671	-2.47331374403248 
1672	-2.51783736105657 
1673	-2.46149986633253 
1674	 0.536761765030553 
1675	 0.389762766946828 
1676	-2.20305888357828 
1677	-3.29711549711953 
1678	-4.46090762317109 
1679	-4.77844903725728 
1680	-4.41351746812272 
1681	-5.00300659476764 
1682	-5.71444012454798 
1683	-6.2898832151598 
1684	-5.87555453036815 
1685	-3.1539949074281 
1686	 0.581075883690219 
1687	 4.21269453863248 
1688	 5.62509536493489 
1689	 4.81136870424128 
1690	 3.91793653358291 
1691	 1.00822996037252 
1692	-0.742026266999466 
1693	-1.9166140804396 
1694	-3.26798381035717 
1695	-5.37007115553103 
1696	-5.58953649695291 
1697	-4.41973730010836 
1698	-3.78457577606781 
1699	-1.92344928191623 
1700	-0.289096319142282 
1701	 1.91880993422175 
1702	 1.77368513541707 
1703	 0.270522446008886 
1704	-0.457713001866979 
1705	-3.69381994340564 
1706	-4.51528054919221 
1707	-1.77541495587264 
1708	-2.34293280055243 
1709	-5.93084435887124 
1710	-5.13714809969169 
1711	-3.26587044714237 
1712	-1.72741956416613 
1713	 3.21828319162123 
1714	 5.61826405862695 
1715	 6.45973072957011 
1716	 5.93989638381988 
1717	 5.10881948541135 
1718	 3.31162749139481 
1719	-1.91385681792175 
1720	-3.26583084266196 
1721	-2.66642865404209 
1722	-3.15460437273334 
1723	-3.1224419585142 
1724	-2.60595566262096 
1725	-2.42105346114548 
1726	-1.76245595844691 
1727	 0.74757804253428 
1728	 1.4933348108834 
1729	 1.31210635894979 
1730	 1.60473564761855 
1731	-0.368627781371305 
1732	-3.91045268778654 
1733	-4.07213654726965 
1734	-1.18683528832038 
1735	-0.108498625347909 
1736	 2.19871186315963 
1737	 3.75926828677941 
1738	 3.61906202769474 
1739	 2.89458804316224 
1740	 2.71191420630706 
1741	 2.13149154550636 
1742	-0.672122708282592 
1743	-1.71098911961882 
1744	-1.84674960197124 
1745	-1.51322767374874 
1746	 6.23027137514571E-02 
1747	 0.156490006468842 
1748	 0.267527364831009 
1749	 0.174760318474173 
1750	-1.48230921552181 
1751	-2.00858601204125 
1752	-1.44870656508912 
1753	-1.82016587191815 
1754	-2.46138016452622 
1755	-2.59646530783772 
1756	 8.86883150259331 
1757	 5.90807717176619 
1758	 13.0184910456359 
1759	 11.0837956966975 
1760	-2.35265355899637 
1761	-17.0646454738208 
1762	-8.42237873713537 
1763	-3.78301761345726 
1764	-0.797445869204516 
1765	 12.8540012713931 
1766	 16.3720817593374 
1767	 7.69626417077218 
1768	 5.72081260313621 
1769	 6.23767474183373 
1770	 6.89841240237476 
1771	 0.51239411303814 
1772	-2.44372485307458 
1773	 2.6640158350406 
1774	 16.2036774610907 
1775	 19.5245843804668 
1776	 30.8934317601577 
1777	 31.6542827969717 
1778	 17.0963433158725 
1779	 8.03973994619703 
1780	 18.0809698673049 
1781	 15.8516309033958 
1782	 23.8629368485208 
1783	 29.7376957370104 
1784	 29.3570293122625 
1785	 16.7429078759782 
1786	 20.9972763318325 
1787	 8.01824896347018 
1788	-3.29557095413497 
1789	 8.30655222885281 
1790	 7.96813215402579 
1791	 12.4109236779907 
1792	 23.9160473899738 
1793	 22.8542230263435 
1794	 22.9884136378605 
1795	 15.6551330297198 
1796	 22.0049470943765 
1797	 30.40882938277 
1798	 32.4563535462721 
1799	 39.0840542044599 
1800	 45.2250899736697 
1801	 48.4967302481758 
1802	 43.9321697793097 
1803	 39.9653806537756 
1804	 37.1519782176248 
1805	 28.3685825041583 
1806	 12.9041567964402 
1807	-1.42471869883086 
1808	-15.3696605347712 
1809	-34.9868612151406 
1810	-33.4583293581347 
1811	-27.3709692513284 
1812	-21.4063008357531 
1813	 0.159449535616765 
1814	 5.88615334448863 
1815	-4.01473316397085 
1816	-1.06941844964141 
1817	 0.272342036157615 
1818	 8.61294114725393 
1819	 16.810602520107 
1820	 41.1568362345802 
1821	 46.2566009596053 
1822	 39.4024161623555 
1823	 38.2932823923939 
1824	 33.806964997894 
1825	 28.9952220036964 
1826	 30.5017501735851 
1827	 25.350649774014 
1828	 12.7653938768773 
1829	-5.80722245818188 
1830	-6.81131660193916 
1831	-0.455972533344895 
1832	 0.920543185129696 
1833	 11.6128510195089 
1834	 17.8918552272151 
1835	 18.8662506549831 
1836	 19.9455656590741 
1837	 27.2286623556928 
1838	 28.5707776525223 
1839	 28.1431436447983 
1840	 17.3537749917555 
1841	 7.59560274355775 
1842	-12.5663925786389 
1843	-14.5696900317494 
1844	-11.0148470633656 
1845	-7.3232350174379 
1846	 17.2272524479418 
1847	 23.9338797957958 
1848	 14.308563733316 
1849	 10.2705922687597 
1850	 21.8902837548852 
1851	 18.8360313426423 
1852	 22.4339938731254 
1853	 40.1226994410534 
1854	 40.7043565973777 
1855	 31.4888001973668 
1856	 24.0300075199985 
1857	 8.44469087378953 
1858	-1.63779111218717 
1859	-10.2224023247289 
1860	-15.9127914026034 
1861	-14.4825230128384 
1862	-12.0225623831352 
1863	-7.23647406984031 
1864	 3.11164169846799 
1865	 5.88164098980182 
1866	 7.321704903722 
1867	 7.00328753877934 
1868	-1.94943404406877 
1869	-0.419217122314017 
1870	 4.32001505248478 
1871	 17.4491065398331 
1872	 29.9958532802091 
1873	 32.7997675056282 
1874	 32.3690489923973 
1875	 26.2470474364197 
1876	 24.5412667640841 
1877	 20.3592345454933 
1878	 26.1332170905761 
1879	 36.5853347936354 
1880	 50.2721656023905 
1881	 61.8969700341795 
1882	 63.5561638003123 
1883	 57.2261825360388 
1884	 43.1205255231175 
1885	 31.1452774109822 
1886	 30.4111041190296 
1887	 27.5114336001109 
1888	 27.0637628574454 
1889	 27.8774000186624 
1890	 28.2785689374586 
1891	 25.2134581856653 
1892	 31.4499965443195 
1893	 33.7771785779494 
1894	 29.3051442473398 
1895	 32.8365701604247 
1896	 28.9651523149496 
1897	 24.1445754281975 
1898	 20.8590319316699 
1899	 20.0323940261393 
1900	 15.9261222742384 
1901	 11.6125272888493 
1902	 13.9894927095029 
1903	 26.4405229111546 
1904	 31.4451499979518 
1905	 31.3412555436068 
1906	 38.6365282309151 
1907	 30.5576159506322 
1908	 24.6983444525855 
1909	 19.0353816155536 
1910	 13.8937634089273 
1911	-2.19406229167129 
1912	-3.59295270438066 
1913	 4.52714207117161 
1914	 9.69399599830518 
1915	 14.8069545422815 
1916	 27.4510149463155 
1917	 34.7479965587345 
1918	 22.8761273598514 
1919	 20.7606652135963 
1920	 18.8224107191281 
1921	 17.2936963177613 
1922	 19.5669756432219 
1923	 19.5497507351586 
1924	 20.5376526154923 
1925	 17.0426725447355 
1926	 10.3899280944008 
1927	-2.2588979526866 
1928	-9.102284184641 
1929	-8.11690052584889 
1930	-9.0722039597567 
1931	-3.74848528024447 
1932	-1.63201227022071 
1933	-6.49591047648248 
1934	-3.04082045452585 
1935	 7.2826255525739 
1936	 15.4367181361904 
1937	 37.7403389096058 
1938	 42.4725052991375 
1939	 39.0769609807788 
1940	 27.7641012248654 
1941	 16.7917780560515 
1942	-12.7399956740479 
1943	-17.0593741375403 
1944	-11.3138327646876 
1945	-5.70744466179068 
1946	 17.7419976813734 
1947	 24.7370742028617 
1948	 30.8223814966306 
1949	 27.2170455360588 
1950	 0.989767293431699 
1951	-7.74388784258685 
1952	-12.4923182642845 
1953	-20.0651773265122 
1954	-17.5969423793987 
1955	 2.64982142492009 
1956	 7.99394133257315 
1957	 9.88925933014425 
1958	 11.6794290878107 
1959	 7.81694358586946 
1960	 9.48708758102449 
1961	 15.6218631865013 
1962	 17.0192733189722 
1963	 16.3399065952492 
1964	 18.5738167904218 
1965	 22.6028193960534 
1966	 20.6700416665875 
1967	 21.4062465380408 
1968	 21.2471785436658 
1969	 30.0047981730041 
1970	 45.5921590639987 
1971	 51.7432729485261 
1972	 66.0959564162503 
1973	 69.2710001566047 
1974	 56.1624361409874 
1975	 49.1648096713221 
1976	 37.7900596243788 
1977	 33.9833324559896 
1978	 34.1743604095866 
1979	 34.7265522455052 
1980	 36.1967788743077 
1981	 46.5061073857802 
1982	 45.7012707656302 
1983	 39.2616319663085 
1984	 34.2557127665083 
1985	 23.0359260317773 
1986	 18.5749197472124 
1987	 16.3928189910251 
1988	 13.7275483143077 
1989	 20.6603208862073 
1990	 16.6904266306566 
1991	-2.07069725909504 
1992	-6.71347178168348 
1993	-0.987976425311027 
1994	-12.1662260955366 
1995	-13.6008909253351 
1996	-2.26407738793829 
1997	-8.78964207775272E-02 
1998	-2.95776107056783 
1999	-3.07089487299533 
2000	-5.99155639196506 
2001	-5.40443359641111 
2002	-3.48284354158187 
2003	-3.0771561297873 
2004	-0.122284073887286 
2005	 6.61960463717544 
2006	 9.46838497319258E-03 
2007	-5.20474911487004 
2008	-12.4978577755229 
2009	-9.08831519185918 
2010	-6.04175759305181 
2011	 2.56640183201067 
2012	 5.71124138311163 
2013	 13.3170729041264 
2014	 9.55339602124601 
2015	-2.39911828644091 
2016	-9.77269349607979 
2017	-28.8039810151849 
2018	-36.1047967702822 
2019	-38.9166641000681 
2020	-34.7306574605675 
2021	-18.640075066736 
2022	-0.378898338211238 
2023	 16.7555704458801 
2024	 33.2670469211308 
2025	 32.3917523273027 
2026	 13.3094245119672 
2027	 5.73074946050525 
2028	-15.0280838584258 
2029	-20.6349174939309 
2030	-13.4385250417148 
2031	-10.6437861890772 
2032	-5.407518724211 
2033	 3.1339140036429 
2034	 6.20387839687078 
2035	 13.4309659301189 
2036	 16.1383271512473 
2037	 18.4888063280258 
2038	 26.4134325796602 
2039	 28.5403965935054 
2040	 34.5173982890571 
2041	 41.0731282733658 
2042	 39.6467878236893 
2043	 29.6086823807305 
2044	 25.1886970673524 
2045	 17.4629933190262 
2046	 12.1287949129301 
2047	 11.0194376399364 
2048	 10.2402219367756 
2049	 8.97492648248615 
2050	 7.09702756070351 
2051	 9.74476407183242 
2052	 3.54578982163712 
2053	 3.08521393314986 
2054	 5.09028938002766 
2055	 6.47452292832155 
2056	 14.8680575160504 
2057	 29.5604283761416 
2058	 42.153410978796 
2059	 42.7254342100345 
2060	 37.7048140391532 
2061	 33.0811346439721 
2062	 10.66940204028 
2063	 2.37450413601547 
2064	 1.14221653712826 
2065	 7.29483873989537 
2066	 1.85419996594122 
2067	-0.579276382358433 
2068	 2.889904958245 
2069	-9.00337763763012 
2070	-7.93119335218429 
2071	-3.1479229939594 
2072	-5.66865574178204 
2073	 3.08850333765077 
2074	-1.96677863659883 
2075	-3.14957625539693 
2076	 0.10155905338751 
2077	-0.790393361304191 
2078	 1.88406511405948 
2079	 15.0325415645884 
2080	 19.1549521511258 
2081	 18.3746537457817 
2082	 27.7482993634265 
2083	 16.1314563602054 
2084	 17.1896042200539 
2085	 9.10163292401547 
2086	-10.151550976459 
2087	 1.71235092926494 
2088	 7.72847046140945 
2089	 13.304782768345 
2090	 24.2220380179351 
2091	 18.0477489257629 
2092	 11.7139822833385 
2093	 9.88515813824968 
2094	 16.512048651434 
2095	 21.6897577872967 
2096	 32.5978933604617 
2097	 40.1086328041439 
2098	 51.1860906746517 
2099	 45.8489112044669 
2100	 40.3520399315422 
2101	 27.8145460789379 
2102	 13.0645605165174 
2103	 17.9287779405568 
2104	 27.1045051845677 
2105	 31.8007397097153 
2106	 36.6500859188137 
2107	 25.4338160798566 
2108	 11.5502674630754 
2109	 17.4576688945148 
2110	 15.369650859142 
2111	 17.6783148919769 
2112	 26.6701111387267 
2113	 24.3367149924464 
2114	 24.8762717797849 
2115	 28.9004700725519 
2116	 27.4277366136118 
2117	 22.0240834815397 
2118	 14.8328162719762 
2119	 1.28626265122292 
2120	-2.86859760618406 
2121	-6.30545229395649 
2122	-0.377639583654902 
2123	 13.9057238326588 
2124	 20.2702382292645 
2125	 28.5710235795284 
2126	 29.653991784068 
2127	 19.2731609002149 
2128	 16.9203062212282 
2129	 5.38968119913993 
2130	-5.46421424120703 
2131	-0.942876516646479 
2132	-1.40174832693583 
2133	 1.80760451200883 
2134	 7.2253345558539 
2135	 6.60741920619148 
2136	 1.39979697745368 
2137	-1.45840325160857 
2138	-7.67859306955786 
2139	-13.5455147783573 
2140	-15.4100130210857 
2141	-29.9546302021891 
2142	-38.0853303143085 
2143	-37.8309796283342 
2144	-44.2621785093622 
2145	-34.752913591048 
2146	-29.732423933945 
2147	-31.1251395733902 
2148	-24.2908190662553 
2149	-17.9581685111388 
2150	-11.02321713893 
2151	-9.34224883737941 
2152	-10.7046631535129 
2153	-12.2262263044252 
2154	-20.0394897258569 
2155	-33.9341295493996 
2156	-34.4366711621792 
2157	-35.0485722379826 
2158	-27.5370505389215 
2159	 4.67038360209103 
2160	 17.3960286861319 
2161	 25.1417055958482 
2162	 27.3335678135362 
2163	 18.9700561271406 
2164	 2.1763726603269 
2165	-1.17350049575949 
2166	 2.39077014711441 
2167	 9.33559282042889 
2168	 12.0138784009951 
2169	 10.1001458955614 
2170	 0.938385311583639 
2171	-5.12924498684037 
2172	-12.208999270546 
2173	-21.7461971208157 
2174	-16.9742083117184 
2175	-17.0961624286921 
2176	-18.4679178630792 
2177	-10.7426137340637 
2178	-7.09117101466054 
2179	 1.71710690775644 
2180	 11.7258449868741 
2181	 20.7158934994734 
2182	 16.9284299831614 
2183	 17.2887911489507 
2184	 17.6740373605334 
2185	 17.310438360341 
2186	 20.1780980463022 
2187	 23.9916793447385 
2188	 26.6321821312477 
2189	 21.5124880318785 
2190	 24.0978784986778 
2191	 14.9827048160173 
2192	 18.0287300632282 
2193	 22.2974032133714 
2194	 20.9995615409016 
2195	 19.5505449128102 
2196	 4.25034964432866 
2197	-7.61159496548177 
2198	-6.34588423277986 
2199	-0.488142740826452 
2200	 9.86783115091522 
2201	 19.3916735000978 
2202	 14.6225715393195 
2203	 1.49106168836249 
2204	-3.66116393314043 
2205	-12.9151908542881 
2206	-13.4402370774977 
2207	 0.485145458635333 
2208	 3.01991015182197 
2209	 11.8683775965406 
2210	 20.6744857807973 
2211	 28.9938206562779 
2212	 31.4572280777055 
2213	 34.0035079142421 
2214	 33.2730661173169 
2215	 24.7400810506857 
2216	 22.3355983013927 
2217	 24.1375985005828 
2218	 27.5209667086551 
2219	 32.9873412012723 
2220	 35.2623341959449 
2221	 39.6667338142436 
2222	 31.7494647134563 
2223	 19.0003384463638 
2224	 8.93790755719493 
2225	 3.9464883119557 
2226	 9.77502277175681 
2227	 10.889755608626 
2228	 4.61189021939942 
2229	-10.690170839904 
2230	-33.5418537570692 
2231	-49.0989001146258 
2232	-46.3264941979223 
2233	-25.2419445365294 
2234	-9.37901707525423 
2235	-0.673187075451988 
2236	-3.04565892338613 
2237	-19.1280771030814 
2238	-31.8993180172539 
2239	-27.8363479879375 
2240	-17.1536443714964 
2241	-9.76161826791238 
2242	-3.95470690915758 
2243	-0.514973541194485 
2244	-2.81579007231414 
2245	-6.13572442992164 
2246	-10.4512788587281 
2247	-11.4963810242932 
2248	-21.6644203551395 
2249	-18.9711205965387 
2250	-4.0369544857333 
2251	 3.61668609962609 
2252	 17.9502024349857 
2253	 27.8119087159099 
2254	 32.5725235857931 
2255	 37.7041249184193 
2256	 46.4923060770331 
2257	 38.9322966398714 
2258	 36.9325441903368 
2259	 32.6774712287328 
2260	 21.1520545809038 
2261	 9.84243429656301 
2262	-7.87425783596964 
2263	-23.6817714981227 
2264	-29.1826813751984 
2265	-28.3203506912216 
2266	-19.3460501821634 
2267	-15.0184343261123 
2268	-21.6640775212523 
2269	-22.296918462132 
2270	-20.0357672807095 
2271	-15.6799333840287 
2272	 7.82173796851404 
2273	 33.1175388082453 
2274	 38.2509105758016 
2275	 45.9502616945908 
2276	 49.7257325208575 
2277	 39.5810233025574 
2278	 41.4476842094368 
2279	 43.5791411161986 
2280	 34.4413136410562 
2281	 26.05912313937 
2282	 15.3165836560395 
2283	 3.61315468251334 
2284	-1.08971585640726 
2285	 6.42034544158121 
2286	 8.00614336325802 
2287	 16.6001247626088 
2288	 13.2288505881649 
2289	-6.35694895725359 
2290	-11.3534773469017 
2291	-14.9776151656482 
2292	-14.7009144192093 
2293	 1.65278964362223 
2294	 9.27326303088639 
2295	 13.4247290029191 
2296	 14.0270720105647 
2297	 10.393491606851 
2298	 3.94454012222384 
2299	-11.8331074203575 
2300	-17.7514450167311 
2301	-24.0977315016163 
2302	-20.2847037628004 
2303	 0.306045337074295 
2304	 11.2202357746931 
2305	 31.2811823289159 
2306	 33.9275056890859 
2307	 14.3601488197427 
2308	 5.15361366993643 
2309	-10.6457320550462 
2310	-15.2147936850002 
2311	-14.7559738893519 
2312	-7.4374104888572 
2313	-2.41649268123365 
2314	-7.96168647290788 
2315	 1.81588253073586 
2316	-0.239721541616232 
2317	-8.10526032973039 
2318	-3.28555395477598 
2319	-14.6072075748487 
2320	-17.4700112612952 
2321	-2.66593264936779 
2322	 0.355712070749846 
2323	 14.2987979619727 
2324	 30.4112490150322 
2325	 27.2989985396527 
2326	 27.8607240673038 
2327	 19.2354549029428 
2328	 9.27470769514951 
2329	 6.42130988193437 
2330	 0.660794291689925 
2331	-7.52753087215006 
2332	-14.0391892481834 
2333	-13.8534504447879 
2334	-8.98970852853626 
2335	 2.69838878171687 
2336	 8.63638651673989 
2337	 18.4690996642789 
2338	 25.082347372957 
2339	 24.5347283851717 
2340	 28.3453583217529 
2341	 14.0888696055032 
2342	 4.39655921328447 
2343	 10.3731906632841 
2344	 14.2125635207946 
2345	 28.4526029497384 
2346	 44.0486698542405 
2347	 50.6978515028168 
2348	 57.7363881887827 
2349	 61.6823857356497 
2350	 57.2957848533273 
2351	 48.4298525585949 
2352	 26.963490499685 
2353	 8.5414691486023 
2354	 4.0302770426547 
2355	-0.519978578594518 
2356	 8.22810334360401 
2357	 17.7017001335964 
2358	 17.0500249575118 
2359	 13.3898883064046 
2360	 7.25040907442296 
2361	 4.55439628931985 
2362	 6.70277238104402 
2363	 7.68915056324491 
2364	 10.1349925951582 
2365	 13.0014909175743 
2366	 6.13066125432785 
2367	 5.89071375908616 
2368	 11.453593654783 
2369	 12.8502624756911 
2370	 12.2572254543416 
2371	 15.5907580951107 
2372	 17.3181918005833 
2373	 6.53289825572185 
2374	 3.58668809801022 
2375	 1.04283736840595 
2376	-11.657022924918 
2377	-14.2242008358229 
2378	-23.8997396407109 
2379	-37.0036538400393 
2380	-41.7838455630246 
2381	-50.263565329208 
2382	-40.5989642567771 
2383	-25.9475316108744 
2384	-19.9545541334792 
2385	-14.1529441952197 
2386	-14.7639521134939 
2387	-20.7068123194996 
2388	-28.1257853456229 
2389	-30.4398084624797 
2390	-34.9141359460186 
2391	-34.3534601851535 
2392	-27.8385513531597 
2393	-23.1943053481018 
2394	-22.1941843727353 
2395	-28.8489050660937 
2396	-33.013920318642 
2397	-29.9828388340521 
2398	-20.6425421652604 
2399	-7.82964490029297 
2400	 2.8953136862233 
2401	 1.92074951166561 
2402	-1.197554034862 
2403	 3.21602879150535 
2404	 9.08740554119394 
2405	 10.2520746081982 
2406	 12.5113453365281 
2407	 12.0569888272538 
2408	 5.84688046556573 
2409	 9.74359368398498 
2410	 5.43735863393314 
2411	-1.64606685189724 
2412	-7.7365283134827 
2413	-19.1557197484981 
2414	-16.6287981102903 
2415	-19.1908584319702 
2416	-25.2664352977328 
2417	-25.4804193330852 
2418	-29.0814966879952 
2419	-22.7645747257204 
2420	-13.5512424642357 
2421	-5.01854828438635 
2422	-1.43414933822884 
2423	 0.624767985311044 
2424	 5.38131254161256 
2425	 0.871214961572079 
2426	 7.64154520471627 
2427	 8.72142518421546 
2428	 4.41367646025164 
2429	 4.87308456957566 
2430	-2.030027225314 
2431	 2.67420060675796 
2432	 3.49238895572896 
2433	 0.712014955221652 
2434	 2.62925693440413 
2435	-3.76949377687078 
2436	-9.55321362897105 
2437	-6.48671475515208 
2438	-2.14270702834022 
2439	 7.75130730652568 
2440	 22.6770970103275 
2441	 29.5513772937877 
2442	 34.1768719836907 
2443	 30.4450605042325 
2444	 23.6493433205489 
2445	 24.7461381099555 
2446	 21.6599794515972 
2447	 20.8221043145767 
2448	 13.8363856757065 
2449	-0.903744777368443 
2450	-3.65657508457064 
2451	-6.92414399917925 
2452	-5.62794274323503 
2453	 1.27082241705637 
2454	 4.0672037086194 
2455	 1.9663470286438 
2456	 0.698405347825704 
2457	-1.43931043964091 
2458	-15.9369092798748 
2459	-22.8574178394892 
2460	-31.3899591554382 
2461	-38.857735045866 
2462	-28.2472861513518 
2463	-20.4816455735494 
2464	-11.7548097568322 
2465	-1.12003230491892 
2466	 2.02740201318403 
2467	 3.57136496070991 
2468	-0.813420223374252 
2469	-5.39332123438056 
2470	-4.62578535963977 
2471	-4.43340243581556 
2472	 3.33924190072368 
2473	 13.794360528578 
2474	 8.68419603001616 
2475	 6.46030661990218 
2476	 2.57574078056669 
2477	-6.3749098513289 
2478	 1.18000673293364 
2479	 5.12520225197313 
2480	 11.8966614001063 
2481	 21.6768820947339 
2482	 14.7812706020883 
2483	 12.5531665038716 
2484	 4.46860408214839 
2485	-8.31182637606439 
2486	-6.1127014311752 
2487	-4.41892339120614 
2488	 0.759203059865159 
2489	 1.6535962544864 
2490	 0.149802193707445 
2491	 5.44126085305917 
2492	 5.03004788996951 
2493	 14.4954184863276 
2494	 18.7296691490365 
2495	 5.54531124604519 
2496	 2.667512386834 
2497	-1.73758174900494 
2498	-6.88247046459318 
2499	 1.89159695120928 
2500	-6.78333194368775 
