Wavelength	2mm_grayABS00000.asd
350	 1.34927098801649 
351	 1.5975246601836 
352	 2.6744599137198 
353	 0.360363391154781 
354	 0.594033225998201 
355	 0.795987365500295 
356	-0.984837745054963 
357	-0.585694834871279 
358	 0.791650021837235 
359	 1.6698230008075 
360	 0.340759107934138 
361	-0.909147699744098 
362	-0.895777666091435 
363	 0.414392699961199 
364	-0.588588868214425 
365	-0.25939620582343 
366	 1.42181071980811 
367	-0.388841718477415 
368	-1.60860204646104 
369	-1.0936436429035 
370	 0.793012614088508 
371	 0.320606725512341 
372	 0.538857984041557 
373	 2.16099714003787 
374	-0.100587481528282 
375	-0.59163711660177 
376	 0.740824172673406 
377	 1.28827266175653 
378	 0.954419091865957 
379	 0.387000299617791 
380	 0.215000558880733 
381	 0.707553517189693 
382	-0.027239973198767 
383	-0.807239796048523 
384	 2.13445418185123 
385	 1.66810421532789 
386	-7.92574908492118E-02 
387	 0.380881933600359 
388	 0.769875316546853 
389	 1.25545928678267 
390	 1.45472958176174 
391	-0.260154509404572 
392	-0.123910548202163 
393	 0.545603177824338 
394	-1.11070723079714 
395	-0.759617590532391 
396	 0.423190507459278 
397	 1.0364918682587 
398	 0.779134469267781 
399	 1.23864952269308 
400	 1.81692613363 
401	 0.297306264612873 
402	-0.13644290529347 
403	 0.289396873728332 
404	 0.66424072787921 
405	 1.117794609107 
406	 1.1584564586255 
407	 0.771908930578199 
408	 0.736775470868405 
409	-0.151270094058613 
410	-0.781495200439097 
411	 0.504794420982022 
412	-0.101247056459807 
413	-0.173151790142522 
414	 1.52235118681771 
415	 0.355117270266752 
416	-9.61812524057984E-02 
417	 0.483398780300489 
418	-0.378924639661286 
419	 0.112085895613192 
420	 0.928893087074744 
421	 0.487727871061056 
422	 0.282626898436766 
423	 0.194215890914726 
424	 0.316375961280633 
425	 1.65213667905857 
426	 1.42398036032737 
427	-2.40055837683413E-02 
428	-0.582339696553332 
429	 0.792638956512423 
430	 1.2146205987562 
431	-0.885250724465252 
432	 0.842847362230328 
433	 1.62504095569622 
434	 0.252053448859126 
435	 0.221780185107943 
436	 0.231631632439765 
437	 0.18042407331177 
438	 0.237120653112381 
439	-0.230653016893015 
440	-0.503980176758306 
441	-0.147919725813211 
442	 0.177452926758492 
443	-0.160189025448151 
444	-0.638911888799612 
445	 0.363338784304981 
446	 0.233037976357382 
447	-0.210218444795742 
448	 0.521111257395602 
449	 1.41469138851683 
450	 1.60194533475734 
451	 0.700107137284281 
452	-1.14800063127799 
453	-0.569015816662846 
454	 1.2477573747803 
455	-6.62891602950301E-03 
456	-1.00355039937396 
457	-1.07200081453848 
458	-0.30007023041959 
459	 0.725376640128504 
460	 1.23510451122206 
461	 0.808227308265077 
462	-0.774168036705216 
463	-0.438472189591774 
464	 0.740012724761794 
465	-0.481992937054687 
466	-1.17300018646931 
467	-0.934084382369076 
468	-0.211196376703258 
469	-0.844302853528724 
470	-1.06340466186711 
471	-0.151538911461988 
472	 1.20819841753117 
473	-0.475190055944819 
474	-2.16614179601435 
475	 1.63018222811988 
476	 1.1090363581489 
477	-0.600491272524246 
478	-4.84738958191523E-02 
479	-1.33878671276618 
480	-2.09193155263368 
481	-1.66409044991723 
482	-1.89302082329552 
483	-1.63794852472525 
484	-1.15648316097164 
485	-1.16495652919391 
486	-0.973663101085745 
487	 0.488109080325162 
488	 3.01699664538081 
489	 1.97286011842143 
490	 3.93141680488213E-02 
491	-1.07321466367811 
492	-0.736925657699911 
493	-0.937943458423603 
494	-1.36458862187026 
495	-0.858543201545918 
496	-0.383676837497349 
497	-0.372317525480837 
498	-0.908293361310006 
499	-1.33975187090932 
500	-1.23872892830022 
501	-0.885999360107668 
502	-1.58378613501436 
503	-1.37101470307173 
504	-0.524411069089241 
505	-0.247450224276494 
506	-0.811878050099493 
507	-1.46258619949758 
508	-1.52106089193872 
509	-1.15562609367453 
510	-0.68064824328787 
511	-0.421851098303279 
512	-0.85117615376932 
513	-0.173588013570353 
514	 0.265197201472516 
515	-1.84369523423786 
516	-1.80965208480238 
517	-0.386061817008625 
518	 0.685739454725419 
519	-0.428705755147729 
520	-1.56859977032637 
521	-1.7655511725542 
522	-1.79294402459686 
523	-0.668602197567589 
524	 0.77755029538099 
525	 0.794158005998521 
526	-2.00196354250485 
527	-3.75836078068402 
528	-1.6776960729056 
529	-0.79087761864821 
530	-1.03711822376473 
531	-1.52657053235326 
532	 0.063315368048689 
533	 0.189133549357167 
534	-0.850103255886512 
535	-0.870638041465456 
536	-1.61522508718549 
537	-2.4732243012472 
538	-2.36108883535725 
539	 0.27063625602371 
540	 0.621277489904292 
541	-2.24091775032632 
542	-1.67997065309779 
543	-1.86916316369922 
544	-2.75881834765398 
545	-2.09191998958534 
546	-1.91049407898009 
547	-2.18906779452084 
548	-2.30863355614271 
549	-1.09124276736993 
550	-0.439450131109435 
551	-1.086931266169 
552	-0.949132320555569 
553	-1.07438869393335 
554	-1.61980935323505 
555	-2.16821370207957 
556	-1.92800913799847 
557	-1.09130925361799 
558	-0.407576970283025 
559	-2.20449719354625 
560	-2.60826922175872 
561	-0.382616117137231 
562	-2.5629656381974 
563	-2.60120276490571 
564	 7.27704226036359E-02 
565	 0.68858785062514 
566	-0.687870146548026 
567	-2.22513602077739 
568	-1.63899083943497 
569	-0.649202221274096 
570	-0.173084789323142 
571	-0.536253877196057 
572	-0.624238576631598 
573	-1.29961510172848 
574	-2.34374542886904 
575	-2.17936018527502 
576	-2.06023458816285 
577	-2.10502069118705 
578	-1.92836006906373 
579	-0.17370254585389 
580	 0.433569149691848 
581	-1.8697202430994 
582	-3.19383869714265 
583	-3.09473586092645 
584	-1.90913824294646 
585	-1.00820890742265 
586	-0.170656518092812 
587	-6.03235655433531E-02 
588	-1.60773346670777 
589	-2.70564311578805 
590	-2.41411382747953 
591	-0.792347129743554 
592	-1.09651665654233 
593	-1.00025776929959 
594	 0.106411562071495 
595	-1.30334069679891 
596	-1.28780653456841 
597	-0.181029079184041 
598	-1.10545699502173 
599	-2.07114171781131 
600	-2.41378076772964 
601	-1.99970752540914 
602	-1.98798217777029 
603	-1.97010470026699 
604	-1.76280638721182 
605	-2.12701175171516 
606	-2.37158079564868 
607	-2.15722142520638 
608	-1.38334649660507 
609	-1.58176460240103 
610	-1.92746998387007 
611	-1.11823668406888 
612	-1.68330479566478 
613	-1.97187271049797 
614	-0.879907490502303 
615	-0.494330854858759 
616	 0.10017701975584 
617	 0.568400072346615 
618	-1.16753096561565 
619	-1.66796046901831 
620	-1.72137338632233 
621	-3.51484365439529 
622	-2.04660724538442 
623	-0.228383002737693 
624	-0.910765002470677 
625	-1.28696226440316 
626	-1.63027290919659 
627	-2.29392281779915 
628	-4.02921973843991 
629	-3.11119718463504 
630	-1.05123208957414 
631	-2.17021059820466 
632	-1.20058939882063 
633	-0.464707599929963 
634	-2.47969505061448 
635	-1.87553134359451 
636	-1.64756699533173 
637	-2.8650996959419 
638	-1.64765685098531 
639	 3.45456736670567E-02 
640	 0.87825083581852 
641	-0.201847655376117 
642	-1.88377451302589 
643	-2.781780828353 
644	-2.01710300315236 
645	-2.35342247356085 
646	-2.2906939473637 
647	-1.25525958458404 
648	-2.27456118909133 
649	-2.397252502051 
650	-1.45181905594949 
651	-1.92719522246006 
652	-2.48295424993251 
653	-2.24136071457109 
654	-0.796119697662405 
655	-1.27155971139956 
656	-2.19533926281475 
657	-2.13060458870288 
658	-1.70580030897565 
659	-1.75969804623344 
660	-2.22804138490786 
661	-1.84498573612276 
662	-1.40893657346214 
663	-1.49263116827057 
664	-2.46284821352136 
665	-2.37777663042484 
666	-1.70062189317739 
667	-1.27597798695817 
668	-1.67086126246599 
669	-1.58260555982015 
670	-0.806961331108949 
671	-0.990363339318965 
672	-1.4810814286967 
673	-2.04349703738886 
674	-2.49716491023739 
675	-1.35507007453741 
676	 0.20217273676532 
677	 0.60965069865346 
678	-0.336568498091226 
679	-1.91062606886578 
680	-3.19662737842237 
681	-2.80533862623407 
682	-2.11048018140097 
683	-1.6061802631482 
684	-1.29054594728989 
685	-1.04965327285412 
686	-1.55838676478736 
687	-3.03623386460716 
688	-1.6961259820912 
689	-0.691699114112306 
690	-1.71146917108505 
691	-1.96587076063599 
692	-2.21332489279685 
693	-2.62726947908539 
694	-3.01487109388267 
695	-2.86519522308151 
696	-2.22005820043381 
697	-1.54006610327323 
698	-2.94058326049646 
699	-3.16733543351032 
700	-1.13290720539327 
701	-3.22119447878186 
702	-3.68477408117585 
703	-2.01062532200717 
704	-2.76978284419607 
705	-2.7481131273506 
706	-2.48749324703701 
707	-3.38628400666756 
708	-2.94203064043547 
709	-2.81813948832961 
710	-3.55150760005793 
711	-0.234859034440269 
712	 0.757806626774016 
713	-1.36115809363224 
714	-1.06551402199332 
715	-0.560886748088045 
716	-0.47531677570788 
717	-0.991493892914952 
718	-2.03846306315415 
719	-2.16737173573757 
720	-0.993107309204854 
721	-2.2489795840973 
722	-2.96810621336099 
723	-2.4292441072849 
724	-2.75383940231083 
725	-2.54777633798162 
726	-1.79853204784774 
727	-1.09379907964059 
728	-1.54654657330087 
729	-1.99211081511592 
730	-1.40036899240298 
731	-0.293757990911126 
732	-9.72924373193234E-02 
733	-1.10151607496091 
734	-2.16799579046773 
735	-3.13286206787388 
736	-3.13438015742714 
737	-1.40138270319593 
738	-1.50375012519056 
739	-2.12737217612392 
740	-1.91647985004968 
741	-2.65186089424087 
742	-1.84123627735954 
743	 0.12569898773457 
744	-1.33741897324339 
745	-1.47188383961002 
746	-1.32256520472896 
747	-3.77922722189 
748	-2.80020940619096 
749	-0.906663548115166 
750	-0.760640267275152 
751	-0.556630573357167 
752	-0.348190584187618 
753	-0.530300091317989 
754	-2.11080880629932 
755	-2.3122542021449 
756	-1.29161467837117 
757	-0.567560626597133 
758	-1.79756496487012 
759	-1.95363266502324 
760	 0.402037195303329 
761	-0.814708939213193 
762	-2.14154679656517 
763	-2.27558075621919 
764	-2.44892455289366 
765	-1.67930485842445 
766	-0.413918352050319 
767	 0.316119223117658 
768	-0.246120904120164 
769	-1.85430065753653 
770	-3.60412117065562 
771	-3.05094707350035 
772	-2.62198135483945 
773	-2.65924970050232 
774	-1.35816367721661 
775	-1.19831103873286 
776	-1.51471222391314 
777	-0.963545870329782 
778	-1.83532721061743 
779	-2.36179196173742 
780	-1.57256979344115 
781	-1.49457710160805 
782	-1.11698763492257 
783	-0.984309229059682 
784	-2.8966330545826 
785	-3.27165481226862 
786	-2.86384083334376 
787	-3.13920394633463 
788	-1.67070067913947 
789	-0.833134740215498 
790	-1.56007588061956 
791	-1.12759764866151 
792	-1.39609645454711 
793	-1.84159277708771 
794	-0.64865330445941 
795	-1.52412960697572 
796	-2.32305972755015 
797	-0.825612442937952 
798	-0.259075338302213 
799	-1.28520042777112 
800	-3.12940389654906 
801	-2.88902112635423 
802	-1.64947736630376 
803	-0.377612828737957 
804	-7.64901693667041E-02 
805	-0.10457971498971 
806	-1.05204900326911 
807	-2.89104939584404 
808	-3.24671232827684 
809	-2.16151086440596 
810	-0.932094034856092 
811	-2.3659353680735 
812	-2.47086666212247 
813	-2.31876164242447 
814	-3.89575157283828 
815	-3.13594027708348 
816	-1.41183562946927 
817	-0.303841547753507 
818	-0.848576365341665 
819	-1.49115342479726 
820	-1.4137359247694 
821	-0.364912624432117 
822	-1.67287064680351 
823	-2.90062786409391 
824	-1.66328543939451 
825	-1.82760080526455 
826	-1.75477458821212 
827	-0.825202199917851 
828	 1.47240978651396E-02 
829	-1.20381489701827 
830	-2.70057391557245 
831	-1.60785156004248 
832	-2.07497652460518 
833	-2.64177610256573 
834	-2.01556409417093 
835	-1.07692166635995 
836	-0.985514040549027 
837	-1.61455844787664 
838	-1.77509595473971 
839	-2.82191567694563 
840	-3.15087098642454 
841	-1.36963616067128 
842	-0.319428849743252 
843	-0.73105036638051 
844	-2.07634711123282 
845	-2.05562382392075 
846	-1.78773930611503 
847	-1.42153558264796 
848	-0.935980686170284 
849	-1.7779448603078 
850	-2.31253037864753 
851	-1.85601542231646 
852	-3.55444778337193 
853	-2.46349299322324 
854	 4.28771880714219E-02 
855	-1.8760074840828 
856	-0.959955308834871 
857	-0.152804764791491 
858	-2.56106859917556 
859	-2.19875633203939 
860	-1.83341622572972 
861	-2.3338709143157 
862	-1.84154195209527 
863	-1.78104617612829 
864	-1.77814011621587 
865	-1.22482240253158 
866	-2.38130000544023 
867	-3.02435245169341 
868	-2.10754499246204 
869	-1.74186808383159 
870	-0.119490370853567 
871	 1.14343667804935 
872	-0.879903358199054 
873	-1.73118269766591 
874	-1.6891836454583 
875	-1.68652571645751 
876	-2.38024370630546 
877	-1.88214767854166 
878	-0.645779382692304 
879	-0.986174252569416 
880	-1.49936949538747 
881	-1.09401393907669 
882	 0.323718330829393 
883	-0.970500039892493 
884	-1.89220195280702 
885	-1.46094355179742 
886	-1.29421942782773 
887	-2.27784772218725 
888	-3.29051822126617 
889	-3.01472421709131 
890	-3.32750872791396 
891	-2.99322586648692 
892	-1.80538054144888 
893	-1.38789415768646 
894	-2.41222819039228 
895	-3.3536078704435 
896	-2.23835074431499 
897	-1.68269305996803 
898	-1.69242279140786 
899	-1.85267235921183 
900	-1.41780491882587 
901	-1.02947827708948 
902	-0.865391549907747 
903	-0.885084950857998 
904	-0.962211583055486 
905	-1.05583645184751 
906	-1.06148798900938 
907	-0.540612061653549 
908	-0.965314682822591 
909	-1.66960004783666 
910	-0.975406602124867 
911	-2.39034006626523 
912	-2.41016579925717 
913	 0.572964337291641 
914	 7.16857680145185E-03 
915	-0.420683913105067 
916	-0.433888105178887 
917	-1.76417688944205 
918	-1.46907824072909 
919	-0.316146804600041 
920	 0.178418521598081 
921	-1.89479446827594 
922	-2.8903121926548 
923	-1.99477136621853 
924	-0.658586313102551 
925	-1.70321438258297 
926	-2.45955898431652 
927	-0.937511370206069 
928	-0.606501554862204 
929	-2.17547328803057E-02 
930	 0.225168172022274 
931	-1.68263673401087 
932	-1.1913811467588 
933	-0.323762476332386 
934	-1.188099619486 
935	-2.52256056024897 
936	-1.87331573820215 
937	-0.2364949430692 
938	-0.980369149023983 
939	-2.28409570688577 
940	-2.08346460811635 
941	-0.181378805376857 
942	-1.8400815444369 
943	-2.66091255451054 
944	-2.16792249228874 
945	-2.26461475838006 
946	-1.26285210146827 
947	-1.11594257199962 
948	-2.43128964578768 
949	-0.815481723695655 
950	-1.48458021706439 
951	-3.28846865527076 
952	-2.14492850516472 
953	-1.9603564231022 
954	-2.78024039381095 
955	-3.55515908435884 
956	-1.64234467840725 
957	-1.55308552369138 
958	-2.30938766531702 
959	-1.13400214626315 
960	-1.28696415493532 
961	-1.30446839358778 
962	-0.86414900003474 
963	-2.36682684359249 
964	-1.7400796760815 
965	-0.430408849734789 
966	-4.49554679262557 
967	-1.22959722424721 
968	 2.14008571467303 
969	 2.76677852729765 
970	 2.63565078396633 
971	 2.92776944474061 
972	 1.69975493653832 
973	 0.86083331491569 
974	 0.929137561351896 
975	 0.939265855073494 
976	 1.33251483713388 
977	-2.16635321838183 
978	-1.62425895180533 
979	 1.71981121281496 
980	 2.83019099709935 
981	 4.04977769145876 
982	 5.97923679852858 
983	 6.39548938483298 
984	 4.02303147820561 
985	 1.41838509677072 
986	-0.263874678468127 
987	-4.75235257245467 
988	-5.95088594978834 
989	-2.77480692562467 
990	-2.91652243785139 
991	-3.96548041187847 
992	-5.18650079956272 
993	-8.54595089972117 
994	-9.54862684411753 
995	-8.97105981914233 
996	-7.80102359014781 
997	-6.36831784003989 
998	-5.58660170845815 
999	-3.82533092244418 
1000	-3.1912591136686 
1001	-1.06221673498019 
1002	 1.38425514522343 
1003	 2.30274895254978 
1004	 4.06140257773099 
1005	 4.81471547361674 
1006	 4.65347345828214 
1007	 3.97155858543616 
1008	 2.1517059174554 
1009	 2.23467416439053 
1010	 1.60637462174796 
1011	 0.606059454511508 
1012	 1.64253115979299 
1013	 1.70295769685579 
1014	 1.43170432466613 
1015	 3.90564154915582 
1016	 5.66206367201124 
1017	 2.46516641332098 
1018	 0.950886296111099 
1019	-0.750925487809025 
1020	-5.18792114542854 
1021	-3.67916409427769 
1022	-1.12267628496278 
1023	 0.620095450747296 
1024	 2.78634572341721 
1025	 7.33977398353615 
1026	 6.69643417568364 
1027	 3.74298109561542 
1028	 0.821835141684859 
1029	-2.49784920266955 
1030	-1.94989020460696 
1031	-1.80275980578992 
1032	-3.45934656590818 
1033	-1.09060365183561 
1034	 0.117580826889499 
1035	-0.32192910847428 
1036	 3.36125157109402 
1037	 4.43253102431221 
1038	 4.90459848698292 
1039	 8.33167526764392 
1040	 8.13240021563149 
1041	 6.34799229529897 
1042	 3.35702497824976 
1043	-2.17195082324035 
1044	-9.71104768691723 
1045	-12.3501850600081 
1046	-12.1744634580338 
1047	-9.14981361705361 
1048	-3.28485922771597 
1049	 1.07609294951047 
1050	 0.946740962588943 
1051	-0.239146566266312 
1052	-1.17441675792447 
1053	-3.69517132953032 
1054	-3.035750176672 
1055	-2.20820010595497 
1056	-3.83917468510724 
1057	-4.89505973997662 
1058	-7.5544009816053 
1059	-7.62123018208909 
1060	-5.45612131675102 
1061	-4.4217483738189 
1062	-1.92449043239518 
1063	-0.978557765862208 
1064	-1.0299829783509 
1065	-4.03475142422826 
1066	-6.68813793259209 
1067	-5.80504693723486 
1068	-5.60474070374157 
1069	-3.91888768380735 
1070	 0.103121391062844 
1071	 2.75098391327722 
1072	 4.80751826396992 
1073	 7.64086673493289 
1074	 6.58511041489913 
1075	 0.94859862451265 
1076	-1.28796300251983 
1077	-5.87354478680134 
1078	-7.30303583110127 
1079	-4.40137881343983 
1080	-3.16957595368709 
1081	-1.32431091333993 
1082	-0.109025203120281 
1083	 1.0795341469319 
1084	 0.438178480775118 
1085	 1.98171725243766 
1086	 3.23729405222294 
1087	 3.94578088556822 
1088	 7.60716228679459 
1089	 9.01383852682971 
1090	 8.76309745809983 
1091	 8.03285051134188 
1092	 5.56924897838578 
1093	 4.15565293992354 
1094	 1.91597345178869 
1095	 0.922903240663549 
1096	 1.24891926270877 
1097	 1.55846952052954 
1098	 2.14811117991432 
1099	 2.71345777806376 
1100	 3.78897013575752 
1101	 4.03809976085918 
1102	 5.0037980173889 
1103	 4.74208871391595 
1104	 2.84444620516728 
1105	 1.486424540262 
1106	 2.18514235222681 
1107	-2.24990795219021 
1108	-3.27746730573209 
1109	-2.5148712513323 
1110	-2.51133125981869 
1111	-1.75497381224956 
1112	-1.89564918940115 
1113	-2.4792764311768 
1114	-2.81678424917817 
1115	-3.79566725023596 
1116	-4.39305125872894 
1117	-5.00367730656554 
1118	-4.80332814981567 
1119	-3.60460456664461 
1120	-3.22194874391493 
1121	-2.8594113517296 
1122	-2.15305696925752 
1123	-1.88994903610325 
1124	-1.73758069006808 
1125	-1.02194466657934 
1126	-0.126911453930341 
1127	-0.267052373754601 
1128	-1.64970435121908 
1129	-1.53753849265105 
1130	-0.75409078704358 
1131	-1.1092520076669 
1132	-1.42440516634584 
1133	-1.82238785202146 
1134	-3.75639863785654 
1135	-3.8663631091284 
1136	-2.17015637296134 
1137	-1.89919594434085 
1138	-1.96675340598337 
1139	-1.58126130869904 
1140	-2.24263242880185 
1141	-1.50994740261109 
1142	 0.570238176231589 
1143	 2.41959973977751 
1144	 6.00970369839176 
1145	 7.53958848722447 
1146	 8.80849512470233 
1147	 8.66731372168796 
1148	 7.2114155262147 
1149	 3.20337458102164 
1150	 1.22365647912848 
1151	-2.15370224363208 
1152	-2.06959002476635 
1153	 0.933185501540707 
1154	 1.70451987283446 
1155	 4.2061805060338 
1156	 4.02407136355205 
1157	 0.869476554118153 
1158	-0.367345907521521 
1159	-2.19794507943276 
1160	-2.71912650854059 
1161	-1.69451944799547 
1162	-1.66158878215728 
1163	-0.907560631028614 
1164	-1.18569969782979 
1165	-3.12348381619321 
1166	-3.67556192588131 
1167	-3.65209091822266 
1168	-4.31374148103078 
1169	-4.07921360590038 
1170	-3.62862822984425 
1171	-1.38196041879777 
1172	 2.1939058746177 
1173	 4.05916858339546 
1174	 7.67439537238299 
1175	 8.31158813830909 
1176	 6.22266471639251 
1177	 5.23953251820624 
1178	 4.10384245982379 
1179	 2.57340950099245 
1180	-0.529440710457533 
1181	-1.95754705532718 
1182	-3.71091497202058 
1183	-3.61752822081068 
1184	 0.428192003635168 
1185	 1.41705548647277 
1186	 2.01271326567925 
1187	 1.38760663678658 
1188	-3.33193541049578 
1189	-5.35375702117118 
1190	-8.79122042478941 
1191	-6.36346939298784 
1192	-2.72261413372318 
1193	 1.30889602591919 
1194	 5.67595527744945 
1195	 7.9420733448116 
1196	 8.05655655783489 
1197	 5.11986447553315 
1198	 3.08891848703292 
1199	-1.12210243721651 
1200	-2.79533834340384 
1201	-3.4827782982669 
1202	-3.73487784678278 
1203	-2.7683512609029 
1204	-2.69487893840714 
1205	-2.73013339255003 
1206	-2.603471647665 
1207	-2.35456926910917 
1208	-2.06716937560404 
1209	-1.32570530744843 
1210	-1.21967454984724 
1211	-2.18502005565758 
1212	-1.81448580169558 
1213	-1.27637152090262 
1214	-2.23854855898952 
1215	-3.10979678786492 
1216	-3.60822229277132 
1217	-2.78291468264373 
1218	-1.30698372116134 
1219	 0.989121698658568 
1220	 2.97440879595466 
1221	 3.70768169200728 
1222	 3.13216111625729 
1223	 3.12785120102439 
1224	 2.89063152277332 
1225	 2.45985385798022 
1226	 2.21586385500999 
1227	 0.583028894086226 
1228	-2.77308164798159 
1229	-4.39178311347976 
1230	-6.24843128615209 
1231	-6.73354499203041 
1232	-5.95005412670096 
1233	-4.66228349627419 
1234	-2.10803399149441 
1235	-0.370138853318631 
1236	 2.53326346405855 
1237	 3.38775393298845 
1238	 3.72413321287487 
1239	 4.0056010924236 
1240	 2.93662610575869 
1241	 2.51627947564042 
1242	 5.60328966382114 
1243	 7.06339677477893 
1244	 6.31447904320187 
1245	 6.24903877523592 
1246	 0.692844532336589 
1247	-6.3739975728505 
1248	-8.86357446259682 
1249	-8.89538941341708 
1250	-9.06759039723128 
1251	-6.92032199619369 
1252	-4.99991510158999 
1253	-3.04693302496456 
1254	-1.41032357609582 
1255	 2.39132428860559 
1256	 3.47065664268897 
1257	 2.24478985328813 
1258	 1.51589173423339 
1259	-2.10162796504871 
1260	-2.22853295494468 
1261	-1.62713351539567E-02 
1262	 1.96512022806738 
1263	 2.45420629814067 
1264	 5.33053703778309 
1265	 4.18722050688775 
1266	 2.90644559976462 
1267	 4.10106470690768 
1268	 0.322387561286719 
1269	-2.61419033563222 
1270	-3.02388860056239 
1271	-3.6741791922184 
1272	-1.82984882413917 
1273	-0.400113160071657 
1274	 2.27129169976024 
1275	 3.50263606267174 
1276	 1.50279621120621 
1277	 2.40731949482309 
1278	-0.5077380043271 
1279	-1.66753319010346 
1280	-1.18805659475714 
1281	-0.941620538834336 
1282	-1.28911197159897 
1283	-0.569424124689454 
1284	 0.70354256766674 
1285	 0.859151722750566 
1286	 1.53500870027601 
1287	 2.10142985359745 
1288	 2.09422924696164 
1289	 1.47199626563783 
1290	 0.819198866927217 
1291	 0.955549057378568 
1292	-0.407606812914997 
1293	-2.44239018402281 
1294	-1.47062865500723 
1295	-3.13193775754569 
1296	-4.80522440209189 
1297	-3.7014078021699 
1298	-3.26363933144678 
1299	-2.57671934297587 
1300	-0.752020866286919 
1301	-8.93748740949933E-02 
1302	-0.835274750732062 
1303	-1.8366407936722 
1304	-1.1039558613103 
1305	 0.993033547146102 
1306	 1.83012626869349 
1307	 5.27437151760955 
1308	 4.89679231354769 
1309	 3.28704435750885 
1310	 5.05796828238546 
1311	 2.16405265168028 
1312	 0.790520126220322 
1313	 0.121499168520002 
1314	-5.94729765420951E-02 
1315	-0.222049990430494 
1316	 0.17425914548975 
1317	 3.32452735553581 
1318	 4.47579295249218 
1319	 4.35035579057483 
1320	 2.83670118999666 
1321	 2.68050584716358 
1322	-0.737429178909079 
1323	-4.11441077143157 
1324	-2.46749647861465 
1325	-0.701009912933165 
1326	-0.393876617506691 
1327	-0.198864875421546 
1328	-0.750278385605583 
1329	-0.917568544837489 
1330	-0.256232108969535 
1331	 4.02325160427117 
1332	 6.64198651858146 
1333	 7.05143811798537 
1334	 7.41714969425176 
1335	 2.09328554614442 
1336	-1.32645394244415 
1337	-0.463396078625947 
1338	-2.18871370793435E-02 
1339	 2.22029218010153 
1340	 2.41546905931093 
1341	-0.189870468546257 
1342	-3.01576712396636 
1343	-5.02770958900028 
1344	-4.24148360042316 
1345	-1.70095609652475 
1346	-0.478497108923128 
1347	 0.206563365365069 
1348	 2.43385209398956 
1349	 1.83306497928079 
1350	-2.05643328810536 
1351	-3.57624916994415 
1352	-6.83987867858056 
1353	-8.5950417966327 
1354	-8.7097080884075 
1355	-8.14426555553654 
1356	-8.79823817238376 
1357	-6.06649300894197 
1358	-5.24798902622532 
1359	-5.48881014591499 
1360	-3.13337079698536 
1361	-2.0266187203402 
1362	-1.24315824133683 
1363	 0.688573051703002 
1364	 1.22361261910894 
1365	 3.76771991806193 
1366	 7.89839905855874 
1367	 7.3750736965466 
1368	 6.81451074173515 
1369	 5.07828576200486 
1370	-0.848890490582768 
1371	-2.54658831215095 
1372	-3.41885124715004 
1373	-6.03288525211678 
1374	-4.21315032962833 
1375	-2.39234142427463 
1376	-2.41275425806286 
1377	-2.2024397974662 
1378	-4.02549738572927 
1379	-6.98559616022268 
1380	-5.90154009102098 
1381	-3.32871775965989 
1382	-3.54845446706527 
1383	-2.14840741540531 
1384	 3.31858665415283E-03 
1385	 2.05344930313701 
1386	 3.71591189534811 
1387	 3.82021832471193 
1388	 4.3836553260541 
1389	 3.22780347050627 
1390	 2.5754266758127 
1391	 4.02005714616425 
1392	 4.76737523812359 
1393	 4.64186900887373 
1394	 4.3984102733496 
1395	 4.59984771935446 
1396	 2.8348954846353 
1397	 1.06021560337572 
1398	 0.50828090087908 
1399	 1.11314492948725 
1400	 5.09199949877055 
1401	 8.48452947924695 
1402	 8.54015056052534 
1403	 7.37388719459619 
1404	 2.4023432323027 
1405	-1.44776067050149 
1406	-0.68854233508249 
1407	-1.11075410352896 
1408	-0.711018462892354 
1409	 0.988114590622825 
1410	 0.141965650900557 
1411	 0.201905104890028 
1412	 2.57275296925401 
1413	 1.75485118049294 
1414	-2.31970989416115 
1415	-4.78677884669196 
1416	-6.61950180750612 
1417	-6.77018669995509 
1418	-4.77119258989195 
1419	-1.97880178581341 
1420	 0.179603336490989 
1421	 1.30637456256883 
1422	 1.19414561653402 
1423	-2.31739810283463 
1424	-5.71258912093859 
1425	-7.60729996319525 
1426	-6.8611577797918 
1427	-4.60517070072095 
1428	-2.75534050896306 
1429	-1.38622427218106 
1430	-1.43383366207596 
1431	-0.551869773782068 
1432	 8.96249762684594E-02 
1433	-0.924622609948052 
1434	-0.749302299474235 
1435	-3.83898897525191 
1436	-8.38044509992795 
1437	-7.05188886715456 
1438	-4.38476212835645 
1439	 0.988778689248967 
1440	 7.1365265388886 
1441	 10.0947484972996 
1442	 7.79095164044345 
1443	 3.76392224611178 
1444	 2.14024432080218 
1445	 0.188156723323522 
1446	-1.61801257334492 
1447	-0.918043031775425 
1448	 0.745905871051599 
1449	 1.07139460986094 
1450	 1.70395441637844 
1451	 2.69590328977707 
1452	 3.52666058237065 
1453	 4.21353639960211 
1454	 5.16997019066964 
1455	 3.89260276932691 
1456	 3.70736866358841E-02 
1457	-1.32067139561377 
1458	 0.607054655475297 
1459	 1.74445755743984 
1460	 2.08638851548047 
1461	 2.79501598030201 
1462	 0.320318791528196 
1463	-1.05156489803625 
1464	 2.52360677501023 
1465	 5.75429796190325 
1466	 7.10701790171589 
1467	 7.34476565096428 
1468	 4.64064227790993 
1469	 0.819784810684035 
1470	-1.43793239001131 
1471	-2.77659013258757 
1472	-2.26436439388274 
1473	-2.47208249065839 
1474	-2.76909322766653 
1475	 0.44962822612186 
1476	 0.758044879578736 
1477	 0.934466182151617 
1478	 1.31403534263155 
1479	-2.02267173819941 
1480	-2.53048151427437 
1481	-2.50966250807745 
1482	-0.205643736676891 
1483	 2.76955293058789 
1484	 3.95882750604835 
1485	 5.21112002869244 
1486	 2.91877198336327 
1487	 3.95857219073057 
1488	 5.03223484574249 
1489	 1.68186046642145 
1490	 0.575457129285877 
1491	-1.31063658954882 
1492	-4.62288752721502 
1493	-5.45590036942931 
1494	-5.39241120126863 
1495	-6.20651500482766 
1496	-5.62842043228295 
1497	-1.85839971737811 
1498	 1.20739600960777 
1499	 2.23364878923581 
1500	 2.71562354615984 
1501	 1.75874839268581 
1502	 1.21833708220649 
1503	 1.74495206759049 
1504	 2.43997529125886 
1505	 2.70223653260374 
1506	 2.88415066100861 
1507	 3.3640195106709 
1508	 2.62694348296393 
1509	 0.591554959921178 
1510	-1.4262247308171 
1511	-0.820550435449348 
1512	-0.950002677395604 
1513	-2.01916496947257 
1514	-2.77386300361261 
1515	-5.2722628758408 
1516	-5.02153532594248 
1517	-3.63267718606606 
1518	-0.479155761952612 
1519	 3.68494836516553 
1520	 7.3034940345739 
1521	 11.9580446326683 
1522	 12.5440355882353 
1523	 10.1250241217382 
1524	 3.65445295014261 
1525	-2.01264071188968 
1526	-3.70692735366753 
1527	-5.88455742494731 
1528	-3.47569726114901 
1529	-1.49246792532602 
1530	-1.53865773938296 
1531	 1.15873466300058 
1532	 1.60876050602579 
1533	 0.696091275786699 
1534	 0.356894058852783 
1535	-0.154538740347076 
1536	-0.425300615269961 
1537	-0.24825703109172 
1538	 6.78005885037959E-02 
1539	 0.436955688932129 
1540	 0.460126192815011 
1541	 0.581716486576068 
1542	 1.13705076429426 
1543	-0.344096533630038 
1544	 1.58935143507792 
1545	 5.03600316170323 
1546	 4.02065560693219 
1547	 4.35960030252518 
1548	 3.57961805015117 
1549	-0.43294433287956 
1550	-1.30971239378556 
1551	-1.85156999426875 
1552	-4.4406638490803 
1553	-5.31328252545295 
1554	-6.4809051463009 
1555	-7.98786909808949 
1556	-8.28775861552261 
1557	-8.36437219820906 
1558	-7.60815029345781 
1559	-6.73243096877713 
1560	-5.23485546326051 
1561	-3.50678289574378 
1562	-3.47118617066024 
1563	-2.81006225568359 
1564	-1.9677857281015 
1565	-2.94166778882413 
1566	-2.31765818375816 
1567	-0.810180421415576 
1568	-0.57651486090062 
1569	 1.6421002944183 
1570	 3.48046540404747 
1571	 3.26322696466855 
1572	 4.37747360687383 
1573	 1.97427317776287 
1574	 8.56043884799912E-02 
1575	 2.07867172615338 
1576	-0.744300743742493 
1577	-2.35058487948308 
1578	-2.17942951053719 
1579	-5.02081590613212 
1580	-5.31673447694988 
1581	-3.94349205452509 
1582	-2.98320606677124 
1583	-1.45818279577846 
1584	-0.15438447156874 
1585	 0.227203758446979 
1586	-0.698934988341472 
1587	-2.68506781464019 
1588	-3.52525033361183 
1589	-3.84548412860506 
1590	-5.45614440987374 
1591	-6.71842164460831 
1592	-7.57839831322509 
1593	-7.58301815830314 
1594	-4.59645024170119 
1595	-1.88135649913272 
1596	-2.29057952333193 
1597	-1.83463886851618 
1598	-1.56271233921922 
1599	-1.98191230788893 
1600	-0.817297815392912 
1601	-0.793326102461092 
1602	-1.75204892143366 
1603	-1.54293886776646 
1604	-1.16590728499083 
1605	-1.19241885981374 
1606	 1.1950664594936 
1607	 2.16139293663204 
1608	 0.617369962750119 
1609	 0.547263105014157 
1610	 1.50906214848093 
1611	 1.68207910365284 
1612	 0.990394237895801 
1613	 2.70137847903339 
1614	 1.50545151128086 
1615	-2.33464356973071 
1616	-1.66289375729403 
1617	-0.94445351589362 
1618	-0.588772218601635 
1619	-0.114994978094273 
1620	-2.93239155009854 
1621	-5.15572561006609 
1622	-5.90034184472519 
1623	-6.31628176118508 
1624	-5.05352933234238 
1625	-3.54393294096018 
1626	-5.14757969037597 
1627	-5.461005957875 
1628	-1.5713447127834 
1629	-0.36133800212236 
1630	-0.146000438275775 
1631	 1.2697289798017 
1632	 2.4029660383791 
1633	 3.42255695050169 
1634	 9.29143370334876 
1635	 10.3536783042746 
1636	 5.33808694995349 
1637	 4.16480979041245 
1638	 3.55318863949436 
1639	 1.60717440718331 
1640	 0.426315971192916 
1641	-0.276923635081273 
1642	-2.96073984337657 
1643	-3.31153365986673 
1644	 0.47004245720531 
1645	 1.46089684010599 
1646	 0.839806908379812 
1647	 0.482978281765252 
1648	-1.97217071307696 
1649	-1.61794822124287 
1650	 2.20690391929474 
1651	 2.8667865363465 
1652	 4.06839719174358 
1653	 3.18704731996011 
1654	-2.85309028187301 
1655	-3.7985238676069 
1656	-3.1215715522868 
1657	-2.1840682096101 
1658	 2.37247970148176 
1659	 3.71284119213919 
1660	 3.05135252100334 
1661	 3.86613745527501 
1662	 4.24290549457936 
1663	 5.5226459644319 
1664	 8.69801303144902 
1665	 9.66884859658785 
1666	 10.178155475034 
1667	 9.16535360578833 
1668	 6.44694752862309 
1669	 4.07112731505325 
1670	-2.08385488996681E-02 
1671	-1.46864479978757 
1672	-2.61717784568894 
1673	-1.77816217452888 
1674	 2.75902943648229 
1675	 2.69520813020969 
1676	 1.85037591968821 
1677	 0.666988683462799 
1678	-3.07897193845495 
1679	-5.80232443061812 
1680	-8.55300662711964 
1681	-8.38628482351334 
1682	-7.88539134073946 
1683	-6.95662461127777 
1684	-2.93956864099934 
1685	-0.565441606559793 
1686	-0.920605371724904 
1687	-0.331256977591412 
1688	 0.872837732860682 
1689	 2.71030096910343 
1690	 2.649754586393 
1691	 1.37875795284359 
1692	 1.26652668998868 
1693	-0.41527573405885 
1694	-0.918199165891883 
1695	 1.45608582726385 
1696	 2.17301117260701 
1697	 2.55963430279004 
1698	 1.62933330630008 
1699	-1.56452710629185 
1700	-2.72983702133897 
1701	-3.93954235095139 
1702	-4.74240367092913 
1703	-3.51449960337679 
1704	-3.51547924696082 
1705	-5.99272016259993 
1706	-4.83512535590966 
1707	-4.35644207612317E-02 
1708	 0.732324853350318 
1709	 1.19765635761591 
1710	 1.94158174554314 
1711	 0.388013300515619 
1712	-0.853594663294147 
1713	-1.14154840189879 
1714	-1.32594272588552 
1715	-3.81009164403046 
1716	-3.0884544040523 
1717	 2.01151953335776 
1718	 2.14517166029449 
1719	 0.547674436724263 
1720	-3.90543465169342E-02 
1721	-3.13925870598058 
1722	-3.11872721140223 
1723	-0.225429297492884 
1724	-0.144940290955239 
1725	-0.859485748858208 
1726	-1.23955323857486 
1727	-0.868135500748898 
1728	 0.831902357363235 
1729	 4.82432902028403 
1730	 5.43262604535625 
1731	 3.39779291985033 
1732	-0.322254198962729 
1733	-2.78637252620044 
1734	-4.9352400751067 
1735	-5.41596937838262 
1736	-3.66930059725609 
1737	-3.50880900674283 
1738	-2.93074960311867 
1739	-2.76013293463064 
1740	-5.34963131124018 
1741	-5.07219946207034 
1742	-1.52824707454863 
1743	-0.738756097275964 
1744	 0.266780532083013 
1745	 0.514814430096153 
1746	-1.56494088439288 
1747	-2.523948091254 
1748	-3.47042894146192 
1749	-4.00939038910843 
1750	-5.19157212407282 
1751	-3.48914437990816 
1752	 1.54221333062095 
1753	 1.81443327038264 
1754	 1.43972128188163 
1755	-1.5716306164212 
1756	-20.4172831170681 
1757	-21.7671875476805 
1758	-23.7311179123744 
1759	-21.850262167081 
1760	-22.8261281362053 
1761	-24.5534767635833 
1762	-19.0213418685044 
1763	-17.4331191284486 
1764	-15.3149172164875 
1765	-22.0014095789232 
1766	-18.8305207605457 
1767	-2.04909038301246 
1768	 3.9530970471245 
1769	 6.27737969240697 
1770	 12.311480936387 
1771	 13.9241837037173 
1772	 2.83228577052974 
1773	 1.12882114458767 
1774	 2.97671947379222 
1775	 4.01100468572846 
1776	 8.8132973261605 
1777	 10.3374500686379 
1778	 11.2268180160996 
1779	 11.4108849024248 
1780	 9.62238226547619 
1781	 1.4594317122554 
1782	-6.81696334624838 
1783	-13.2612873840941 
1784	-16.4994843914275 
1785	-18.813480177982 
1786	-18.2275165989843 
1787	-13.3766514604701 
1788	-16.9685098787573 
1789	-29.0003840518965 
1790	-28.631676725046 
1791	-31.0794323972948 
1792	-25.9758760210177 
1793	-4.26084331107879 
1794	 3.569754056412 
1795	 5.99739375039171 
1796	 7.39950887639397 
1797	 7.16769915638481 
1798	-5.21331849791954 
1799	-12.007514226683 
1800	-10.1478214510724 
1801	 0.894624866560214 
1802	 18.0010701539923 
1803	 23.777697276614 
1804	 29.6008232431732 
1805	 30.2322958048775 
1806	 19.2916293922231 
1807	 9.20141066199661 
1808	 12.1944195716343 
1809	 19.7003005145148 
1810	 16.6025455680264 
1811	 6.81180346935914 
1812	 2.41609250416146 
1813	-3.83294370958692 
1814	-13.6528733949785 
1815	-26.2703612227511 
1816	-30.5715398025673 
1817	-34.0230511407282 
1818	-45.7029108449252 
1819	-39.4110982203524 
1820	-22.715829598778 
1821	-17.6503986276484 
1822	-14.9033238430743 
1823	-14.8101309358961 
1824	-26.7837396386083 
1825	-23.9091682972206 
1826	-7.20084858107206 
1827	-4.60637803520212 
1828	-2.28104923739113 
1829	-1.10216998526931 
1830	 0.781702556191898 
1831	-8.35548227871588 
1832	-11.025536235018 
1833	-0.865185149215364 
1834	-3.98508341654375 
1835	-22.8844452752175 
1836	-29.1142210112548 
1837	-38.6689400775629 
1838	-38.4862472865174 
1839	-27.4117246073689 
1840	-9.81721079865861 
1841	-4.07591699467856 
1842	 0.812669709639586 
1843	 6.79741593983451 
1844	 3.78713174486832 
1845	 6.11824486658116 
1846	 23.3032546650494 
1847	 24.3962911161161 
1848	 14.1190708165521 
1849	 6.79284426103757 
1850	-5.45031940534446 
1851	-19.863481888593 
1852	-24.6181469570353 
1853	-17.0101050311969 
1854	-23.0022504787846 
1855	-34.2588936943664 
1856	-37.7230903460724 
1857	-44.9105842304443 
1858	-46.2504116256365 
1859	-46.8046019943654 
1860	-42.2468755301708 
1861	-38.8725607676716 
1862	-44.2538189100146 
1863	-40.629665552278 
1864	-27.5087415992728 
1865	-20.1400314538041 
1866	-10.4900396727144 
1867	-6.24899300739193 
1868	-2.94682483557054 
1869	-6.04278479339956 
1870	-9.35674243065044 
1871	-10.8969359582564 
1872	-18.8566945987183 
1873	-20.8380262104573 
1874	-23.2396184666828 
1875	-19.8876738169716 
1876	-18.9084201815041 
1877	-12.4579554154608 
1878	-12.2414173331112 
1879	-12.7929736845926 
1880	-20.2960608240612 
1881	-28.2976871686269 
1882	-29.2174969563403 
1883	-30.0886615739981 
1884	-31.3482037687876 
1885	-24.4123923063449 
1886	-14.8636174526598 
1887	-10.3813587026898 
1888	-7.84325994133119 
1889	-6.69598497445381 
1890	-3.70538273781427 
1891	-13.0957101166132 
1892	-20.8322689951699 
1893	-14.0045448912329 
1894	-21.3862166513016 
1895	-24.7230351995294 
1896	-20.1594592566627 
1897	-17.5815611671545 
1898	-15.3316382156041 
1899	-14.7797706132883 
1900	-13.3894578327247 
1901	-10.3166071070391 
1902	-16.350629716302 
1903	-27.5829822615677 
1904	-30.9539545006801 
1905	-35.2614350016358 
1906	-32.5513538893553 
1907	-27.7167875496612 
1908	-24.4941500002401 
1909	-15.6913387636721 
1910	-14.7360654717162 
1911	-21.4696125796097 
1912	-22.4542555184526 
1913	-23.9558183271875 
1914	-23.9113524116896 
1915	-22.7245914025555 
1916	-23.5909393992169 
1917	-25.9390582639284 
1918	-28.6939555356131 
1919	-26.5043525350806 
1920	-17.3776020131952 
1921	-15.2734444910841 
1922	-6.21058493808539 
1923	-11.5642782480946 
1924	-37.8282718600178 
1925	-48.4143049624753 
1926	-59.9078099211609 
1927	-70.6773157825206 
1928	-63.072796509213 
1929	-43.0746761135874 
1930	-34.4804867251212 
1931	-25.8222769097293 
1932	-16.6018976331387 
1933	-6.25885027743412 
1934	-5.37381743601862 
1935	-4.02935584778033 
1936	-8.50611441341936 
1937	-38.1204364627586 
1938	-44.0234404127202 
1939	-40.7313335453504 
1940	-33.9371413075773 
1941	-19.5926841069709 
1942	 17.3504313136321 
1943	 28.6597895987459 
1944	 35.8822998848682 
1945	 36.3304988298534 
1946	 21.9516875602873 
1947	 12.901965022782 
1948	-3.41173931134058 
1949	-9.86534623875406 
1950	-11.6604232656028 
1951	-14.0121883071574 
1952	-12.609534927949 
1953	-6.65686303798533 
1954	-4.46277375670953 
1955	-5.89801757424188 
1956	-2.58323643353677 
1957	 7.7923924971765 
1958	 7.46976028224456 
1959	 5.02330657069674 
1960	-0.451210181186464 
1961	-21.2964373089584 
1962	-27.4388048102425 
1963	-25.0399216488417 
1964	-25.9702215691873 
1965	-28.5391277888399 
1966	-16.4214844027626 
1967	-14.9449976420231 
1968	-18.5053551299583 
1969	-18.5351488639755 
1970	-16.2517170174255 
1971	-17.9086327358853 
1972	-20.9096079444445 
1973	-24.8240810972327 
1974	-33.4604080352817 
1975	-37.4405551291561 
1976	-43.7519875972207 
1977	-43.8302570802726 
1978	-38.1960185909319 
1979	-30.1671223905065 
1980	-24.6109354911997 
1981	-14.2129952636616 
1982	-10.4378329317657 
1983	-5.77634383016392 
1984	-13.921877673062 
1985	-36.5987509172016 
1986	-45.4434906994296 
1987	-63.2157400709045 
1988	-66.9371880610337 
1989	-49.4699146579293 
1990	-42.7230423913642 
1991	-36.137554390392 
1992	-31.8072692772961 
1993	-24.4320609166103 
1994	-26.3054766960083 
1995	-22.1585236225539 
1996	-13.4954038838565 
1997	-10.3676515740518 
1998	-8.53593155537872 
1999	-5.75135975982397 
2000	-5.52790775921338 
2001	-5.10406719464752 
2002	-6.13486184489814 
2003	-4.96823946902172 
2004	-5.05791454063176 
2005	-1.02929445404626 
2006	 4.92726788809834 
2007	 16.4687576571632 
2008	 22.4199525795274 
2009	 14.5745285983184 
2010	 7.09937268112894 
2011	-12.9787968142641 
2012	-21.584431920044 
2013	-27.744726869862 
2014	-29.7337149191168 
2015	-22.8975246213313 
2016	-21.1972212001916 
2017	-17.7491160060417 
2018	-20.2535798625714 
2019	-28.8319574973873 
2020	-35.6899326292244 
2021	-37.0030318857786 
2022	-41.7434924910255 
2023	-34.5195440104561 
2024	-28.0185822280727 
2025	-31.0561251597018 
2026	-42.8459275604414 
2027	-42.290918354938 
2028	-45.9921370297809 
2029	-40.9062779138375 
2030	-21.6579544085039 
2031	-11.9836665138004 
2032	-0.645500359780996 
2033	 2.37611970045395 
2034	 4.82395310843543 
2035	 4.66297348966466 
2036	-10.4617442851552 
2037	-12.6987050651721 
2038	-22.4627988731529 
2039	-32.8135083667255 
2040	-27.0511185620968 
2041	-30.1244224922898 
2042	-27.4384500448677 
2043	-14.6713533946113 
2044	-14.5131410820942 
2045	-18.8120860471949 
2046	-20.7699098864 
2047	-32.6330318306137 
2048	-32.6196305725692 
2049	-23.6144657151091 
2050	-20.7477978283543 
2051	-9.73744183056486 
2052	-1.67472448884118 
2053	-7.04989749816774 
2054	-10.9962988237518 
2055	-19.6349688039278 
2056	-28.5942519968729 
2057	-24.658854550084 
2058	-17.3200537368287 
2059	-10.2314775455691 
2060	 6.24769678618955 
2061	 11.1410814475272 
2062	 9.15506263994855 
2063	 7.34201331149376 
2064	-4.81988606553063E-03 
2065	-4.25339083527645 
2066	-9.04223637700226 
2067	-6.64368610198404 
2068	 0.878383543154485 
2069	 3.02428861625 
2070	 1.68969306651355 
2071	 2.75741117550759 
2072	 3.77450263698043 
2073	 8.93344640590983 
2074	 14.0918151558417 
2075	 18.7267953417363 
2076	 16.5114971761736 
2077	-0.296208246549063 
2078	-8.14677515459441 
2079	-15.8615040799301 
2080	-19.6547236187156 
2081	-21.6296020515276 
2082	-8.61311728450827 
2083	-8.75229432622023 
2084	-19.9175821092955 
2085	-24.6260922146701 
2086	-38.9616096964926 
2087	-56.7225958491445 
2088	-59.2210221745578 
2089	-58.1826269301893 
2090	-55.0447749531457 
2091	-43.0977730119002 
2092	-26.7855514383582 
2093	-24.4117624211124 
2094	-21.4438095397527 
2095	-18.6120511761322 
2096	-22.7016580466349 
2097	-25.46158452956 
2098	-24.3299510510579 
2099	-27.0051012132921 
2100	-39.5318436877041 
2101	-24.9332918343627 
2102	-8.46603562091496 
2103	-5.81590511402249 
2104	 0.906470518861432 
2105	-0.938352506796238 
2106	-15.1569761069181 
2107	-19.1173636866326 
2108	-10.80370651195 
2109	-4.95962962498652 
2110	 8.74485861131289 
2111	 25.3093093607017 
2112	 24.6746812198073 
2113	 21.6573162283909 
2114	 15.1255198988654 
2115	-7.96884820711563 
2116	-15.8018089299949 
2117	-16.4771029968105 
2118	-22.5972220074256 
2119	-24.7395102160921 
2120	-28.7255259882133 
2121	-43.5112197597805 
2122	-41.6596472091818 
2123	-40.3629293118425 
2124	-41.7271296060479 
2125	-33.5518940783204 
2126	-35.0532679273045 
2127	-33.2949533695744 
2128	-35.9352292484565 
2129	-43.6205064406888 
2130	-44.4183998689666 
2131	-47.7818374362973 
2132	-38.4306209152832 
2133	-31.8122251141647 
2134	-31.7869903182341 
2135	-26.7269069080837 
2136	-22.1338198848531 
2137	-18.7042696786765 
2138	-7.2712114932593 
2139	-6.12660512226586 
2140	-11.6291792428331 
2141	-19.9854948187914 
2142	-24.3266303472666 
2143	-19.9115949981214 
2144	-15.4269502080051 
2145	-7.1703878272645 
2146	 5.55265124896882 
2147	 0.684652051025799 
2148	 1.03830865136873 
2149	 14.5750100674955 
2150	 14.6239649642575 
2151	 21.0359655905079 
2152	 28.9452178452634 
2153	 19.9096371387316 
2154	 9.47763894627793 
2155	 6.41768655043274 
2156	 0.387921419139816 
2157	-3.90042850085302 
2158	-5.91760107679358 
2159	-8.59916835546739 
2160	-11.6594197299445 
2161	-8.20459914854419 
2162	-11.6277087911463 
2163	-22.001414532595 
2164	-16.6663362356873 
2165	-24.5167923471068 
2166	-28.9055620884307 
2167	-15.1740876836301 
2168	-13.4002499115239 
2169	-5.09508371281156 
2170	 1.86785394932256 
2171	-1.92183987170852 
2172	-3.99136867438123 
2173	-9.27030814847878 
2174	-11.55964273282 
2175	-17.1730943323744 
2176	-22.3020126998298 
2177	-18.3355998350611 
2178	-17.3688317637806 
2179	-17.1139765934008 
2180	-11.6267241372224 
2181	-10.5287902142313 
2182	-7.87212953365329 
2183	-3.48890964673513 
2184	 4.69130446866136 
2185	 10.6487844799772 
2186	 17.0775314145393 
2187	 20.6315726788367 
2188	 24.6874331390474 
2189	 21.7302852950969 
2190	 21.2648572999625 
2191	 20.1550404581122 
2192	 23.3170255015776 
2193	 28.8515032713166 
2194	 25.6474481928606 
2195	 24.6176636454303 
2196	 14.1025353619786 
2197	 2.6524739273431 
2198	-5.42134022489517 
2199	-9.16430316320679 
2200	-10.373637319102 
2201	-14.5606032320289 
2202	-8.02942739956677 
2203	-5.73768375749113 
2204	-11.2783304537467 
2205	-15.2864983222975 
2206	-21.1353948167781 
2207	-26.9481569526027 
2208	-24.2450576955632 
2209	-13.769350510972 
2210	-12.8004974314546 
2211	-20.4991535088449 
2212	-22.1745222193841 
2213	-28.4188704160135 
2214	-25.3709404823482 
2215	-9.17672702680625 
2216	-0.56290075024161 
2217	 11.2600842875702 
2218	 13.2047807719274 
2219	 8.23623727923359 
2220	-1.99553596973087 
2221	-10.7825743332751 
2222	-13.2453308877203 
2223	-7.62410165993244 
2224	-3.91176649425395 
2225	 3.41069555909841 
2226	 0.847810008220234 
2227	-8.38792320631975 
2228	-10.4046772028527 
2229	-15.1828995682662 
2230	-16.5478037606572 
2231	-13.4116262541038 
2232	-10.3699142043118 
2233	-11.5801411598705 
2234	-4.64003268104526 
2235	-0.561857977105384 
2236	-3.15086243862391 
2237	-0.541196032365971 
2238	-2.45291693271402 
2239	-7.05456920039128 
2240	-4.27138305012088 
2241	 0.49958122689751 
2242	-0.611359631427554 
2243	-0.431599303674897 
2244	 2.4300768085078 
2245	-5.6131129907741 
2246	-23.5116007068963 
2247	-26.5457155473318 
2248	-28.5607359048039 
2249	-29.1317533339099 
2250	-14.9794605526578 
2251	-15.278329815544 
2252	-28.53164722987 
2253	-33.5759036919754 
2254	-40.8491565977936 
2255	-41.913713749598 
2256	-38.2724990674831 
2257	-33.5787369572463 
2258	-25.560293213482 
2259	-25.3648245110585 
2260	-15.5328961815033 
2261	-6.18819415725735 
2262	 5.12116185846096 
2263	 27.529117748717 
2264	 30.4082281558715 
2265	 22.9457566972326 
2266	 12.851712573498 
2267	-6.23464770916579 
2268	-23.1297595428768 
2269	-17.3534418454727 
2270	-5.99396882556762 
2271	-1.68906623347301 
2272	 17.3246465163072 
2273	 19.2371129378659 
2274	 4.00626915405559 
2275	 0.428445121788068 
2276	-12.3827614281538 
2277	-20.3232926438836 
2278	-9.84288561617928 
2279	-4.81823755379557 
2280	-2.94113365031099 
2281	 3.78486083968507 
2282	 2.15391714359076 
2283	 0.117871942883974 
2284	 4.65901770853833 
2285	 5.78465226714801 
2286	 1.09073622037664 
2287	-9.79463719325316 
2288	-15.9171060543195 
2289	-28.956523455366 
2290	-31.9765674134394 
2291	-25.9450367301062 
2292	-20.9647384986779 
2293	-11.2291926388433 
2294	-5.56749557579539 
2295	 5.45498008289308 
2296	 4.00620437035096 
2297	-5.89692444463572 
2298	-15.8216503940884 
2299	-41.1675883881713 
2300	-49.9983642197881 
2301	-49.0380760846513 
2302	-51.8268295656438 
2303	-48.8044891275471 
2304	-46.0013995557774 
2305	-48.1402473017747 
2306	-43.7930997078046 
2307	-27.6051635405685 
2308	-22.8102509656264 
2309	-23.7017694671713 
2310	-18.3840158217182 
2311	-25.2130179599849 
2312	-33.8066292360724 
2313	-25.0428384648066 
2314	-20.5153114396293 
2315	-20.9228161909585 
2316	-18.1590487646624 
2317	-24.1315906502155 
2318	-34.2469464144564 
2319	-27.3241616213823 
2320	-15.6603363246957 
2321	-5.20791144593118 
2322	 1.82286963662013 
2323	-10.3184019137446 
2324	-10.5361869754892 
2325	-2.31008562066526 
2326	 7.58042145671249E-02 
2327	 14.1416568341363 
2328	 20.9748101024867 
2329	 17.967756578546 
2330	 10.4708841502186 
2331	-2.13021917085303 
2332	-10.1666555515318 
2333	-27.9323310973988 
2334	-39.0938941986387 
2335	-37.2185847786686 
2336	-41.1382247028853 
2337	-35.0488765211434 
2338	-24.3129114127374 
2339	-12.2550794022585 
2340	-7.92314987199805 
2341	-8.93015926833752 
2342	-7.40603517989806 
2343	-17.4674331334275 
2344	-11.0996676332095 
2345	 2.97227773661655 
2346	 6.3008749833474 
2347	 12.7865531228949 
2348	 10.3359178213494 
2349	 7.60685269828213 
2350	 11.0535793573506 
2351	 14.2745250853895 
2352	 22.2890051181635 
2353	 21.2446889813077 
2354	 10.5040327568152 
2355	 9.09382810354627 
2356	 2.93083327078171 
2357	-3.74377128250139 
2358	 7.47765897365134 
2359	 14.2467146733333 
2360	 22.5164063096378 
2361	 25.2845398214247 
2362	 20.453480616505 
2363	 9.6777238578722 
2364	-13.159428044581 
2365	-20.889866480376 
2366	-32.5760012745071 
2367	-38.7572074641724 
2368	-35.3047338548889 
2369	-37.4746005211881 
2370	-31.883269458661 
2371	-31.554032092844 
2372	-29.5755351210698 
2373	-21.8904630644333 
2374	-23.6732371719098 
2375	-23.2446936056816 
2376	-29.2699802918265 
2377	-39.2754139430849 
2378	-39.7079978617801 
2379	-40.5257802801591 
2380	-24.4841007960197 
2381	-13.472373797543 
2382	-8.34365348620798 
2383	 0.993411170926459 
2384	-2.3778413922012 
2385	-6.70476537253704 
2386	-10.5456427438695 
2387	-11.9200050688255 
2388	-17.4102066074452 
2389	-7.01220749248045 
2390	 10.6556781628931 
2391	 16.3623546459888 
2392	 34.2677466166782 
2393	 31.7278677053461 
2394	 11.7299402768219 
2395	-2.82192634681282 
2396	-23.5506352647183 
2397	-25.4912030998284 
2398	-14.1385274570287 
2399	-5.73832737271158 
2400	 7.85409592208184 
2401	 16.148041794726 
2402	 12.0997362059908 
2403	 11.0967774871516 
2404	 7.35983373249534 
2405	-3.49572482770861 
2406	-2.98931948539064 
2407	 1.34026817241951 
2408	 0.59845447424187 
2409	-1.11115082966023 
2410	-8.93522459728822 
2411	-23.001441641073 
2412	-30.7397943114733 
2413	-36.1436820888129 
2414	-39.2881448456073 
2415	-35.4019689916684 
2416	-36.8178904456215 
2417	-35.0674241806073 
2418	-29.5013872321877 
2419	-32.7623920833387 
2420	-35.587748432255 
2421	-37.2034842133164 
2422	-45.3493725666663 
2423	-47.6591613813679 
2424	-42.3664888510873 
2425	-36.4233648595294 
2426	-25.4121855591278 
2427	-19.9576235068409 
2428	-20.2831430220904 
2429	-29.5680141024359 
2430	-38.6040201548584 
2431	-39.7709891196398 
2432	-38.8859040804533 
2433	-33.0448598617205 
2434	-35.5178566270603 
2435	-36.1168851465836 
2436	-48.7452799809918 
2437	-61.1369850224432 
2438	-58.6267691733423 
2439	-66.715451610711 
2440	-56.8751008391341 
2441	-35.7442080048658 
2442	-27.066238071804 
2443	-14.691586719793 
2444	-13.0790293142354 
2445	-26.6863774560188 
2446	-31.2308420118508 
2447	-40.4340751951756 
2448	-46.0625755698253 
2449	-47.6460264508684 
2450	-54.076633135211 
2451	-47.6529229793837 
2452	-47.5099483827523 
2453	-43.9370771963486 
2454	-31.4376015628157 
2455	-26.9618334065492 
2456	-14.9479523385828 
2457	-0.374198277261693 
2458	-0.617197977950214 
2459	 0.598405940048089 
2460	 7.63067425419614 
2461	 9.59962181088023 
2462	 6.06383783040869 
2463	 2.506704727898 
2464	-5.23594280654874 
2465	-4.54231003023034 
2466	-1.886156951923 
2467	-0.284589223190945 
2468	-7.01871736899633 
2469	-20.4687912427841 
2470	-33.0723408857422 
2471	-27.6623418311364 
2472	-12.4261436406275 
2473	-0.570800659386974 
2474	-2.05510851245801 
2475	-7.79501070159076 
2476	-19.5316954482731 
2477	-30.1544045057243 
2478	-23.4237396279589 
2479	-21.316172226322 
2480	-21.8672207017761 
2481	-19.679776907723 
2482	-26.9353637906831 
2483	-36.084920460502 
2484	-36.5191134771212 
2485	-39.8355147779903 
2486	-36.6888915732037 
2487	-15.1740106459193 
2488	-0.924080448435697 
2489	 10.2018526663121 
2490	 13.5945258565992 
2491	 3.32071828230591 
2492	-4.45020258894226 
2493	-7.25425163903485 
2494	-7.92161759687635 
2495	-9.53098783650232 
2496	-7.88412104443518 
2497	-6.43516806752755 
2498	-10.7707553428323 
2499	-9.22564474342669 
2500	-9.59194292298999 
