Wavelength	3mm_grayABS00000.asd
350	 1.50702877748715 
351	 2.01731394678609 
352	 2.39882290994434 
353	 1.4169065714333 
354	 1.24286447649031 
355	 0.722708688833329 
356	-0.720919065669831 
357	-0.257859892148333 
358	 0.596048029684026 
359	 1.21110341108674 
360	 1.63900994904576 
361	 0.869895805062757 
362	-0.13359994535335 
363	-0.278097638397455 
364	-0.129437479468691 
365	 0.742442417246113 
366	 1.54540417762026 
367	-0.201776827468831 
368	-0.363552845939142 
369	 0.306768391607605 
370	-0.10667184264382 
371	 0.504421360381725 
372	 1.73346855038632 
373	 2.62718731256259 
374	 1.20756755089225 
375	 1.03389352160249 
376	 1.42824049784802 
377	-5.58608614851237E-02 
378	 0.170948022091188 
379	 0.959826529894952 
380	 1.16318023524843 
381	 2.06625510169361 
382	 1.28238181690745 
383	-0.208021700201299 
384	 1.43641881890851 
385	 1.43813504359366 
386	 0.47793047450031 
387	 0.35956930262146 
388	 1.26305512948412 
389	 1.78915937315225 
390	 1.27301076658579 
391	 1.50733847339114E-02 
392	 0.92053907076211 
393	 2.04042735994779 
394	 5.83591961388806E-02 
395	 0.403954211522008 
396	 1.51748752960453 
397	 1.59070763607245 
398	 0.177562812755228 
399	 0.235245859559204 
400	 1.25319815202655 
401	 9.20532160159827E-02 
402	-0.386518157031915 
403	 0.215386656567061 
404	 1.2832403086037 
405	 0.301701069522115 
406	 1.37732799923319E-02 
407	 1.03104815855949 
408	 0.405469182565002 
409	-0.087910427774144 
410	 0.153267646615661 
411	 1.10582849113978 
412	 0.610220573826921 
413	 0.645922140450019 
414	 1.95106392759569 
415	-0.152924302021645 
416	-0.374361872611093 
417	 1.03041924631204 
418	-1.02828857240304 
419	-1.19379368737012 
420	 7.94167180900738E-02 
421	 0.887519836119479 
422	 0.775050102725002 
423	 0.28732976686794 
424	 0.18166379393684 
425	 1.94215862044253 
426	 1.3368016381111 
427	-0.670387102860368 
428	-0.36608650372546 
429	 0.836397063092231 
430	 1.14094266617395 
431	-0.165796960853399 
432	 0.554785084074481 
433	 1.30399578417722 
434	 1.16221062531761 
435	 0.60074396773 
436	 0.294513834447448 
437	 0.474794454519045 
438	 1.06489844714954 
439	 1.34421769252844 
440	 1.10705355172708 
441	 0.482319618689446 
442	 0.289386086558707 
443	-0.271374567749571 
444	-0.927112001105104 
445	-0.43467223852242 
446	 0.132186845583583 
447	 0.672007811763671 
448	 1.3135633819151 
449	 2.01296578959538 
450	 1.94215336081581 
451	 0.817513791669967 
452	-0.698534105771216 
453	-0.580892376143385 
454	 0.681480624776311 
455	 0.801440949347354 
456	 9.07280672283204E-02 
457	-0.457180175341597 
458	-3.69056927989676E-02 
459	 0.148994596548438 
460	 0.246021377936718 
461	 0.272999398661218 
462	-0.315363334787361 
463	 0.489830034834372 
464	 1.88813350310223 
465	 1.58655924293186 
466	 0.731614018040097 
467	 0.261697809907444 
468	 0.637658907852073 
469	 0.432266427551048 
470	 0.664934810900996 
471	 1.40979889088811 
472	 1.22427112832989 
473	 1.95450600922738E-02 
474	-0.321088155540239 
475	 2.5406927029936 
476	 1.1050363988083 
477	-0.698462217483077 
478	 0.711902513619142 
479	 4.02691348862434E-02 
480	-0.49482097615072 
481	-0.293796050971924 
482	-1.18561450603943 
483	-1.07875380548235 
484	-0.593855224171306 
485	-1.28433866017535 
486	-1.08048764295703 
487	 0.151219510054948 
488	 1.81299984419685 
489	 2.17487668065064 
490	 0.872504204729697 
491	-0.815547926826521 
492	 0.857032312631194 
493	 0.499160415463013 
494	-1.1435081148894 
495	-1.00971751666773 
496	-0.524894705904066 
497	-0.752552349669785 
498	-1.8186400846218 
499	-0.74439335084059 
500	-0.180927910471898 
501	-0.67668324142575 
502	-1.19685093252987E-03 
503	-0.417966367638442 
504	-1.35368984723372 
505	-1.19161936680696 
506	-0.598024984270307 
507	-0.497816207517762 
508	-1.22885381099622 
509	-1.09112258428888 
510	-0.225756606358893 
511	 0.641628534345411 
512	-0.152638205446118 
513	-0.193431499482243 
514	-0.281542152191756 
515	-2.2259564247759 
516	-1.99372517318947 
517	-0.596162857715082 
518	 0.238980412968134 
519	-0.582508074478719 
520	-1.56899987376488 
521	-1.86759062346544 
522	-1.50093474481435 
523	-0.374963786126524 
524	 0.699828301640325 
525	 0.450307704427595 
526	-1.77939011187657 
527	-2.8720369063042 
528	-0.839755822863825 
529	-0.794802228906481 
530	-1.30309352900881 
531	-1.10533298675745 
532	 0.988392445156908 
533	 0.774472774824753 
534	-0.799757935076291 
535	-0.21053533259703 
536	-1.395829229092 
537	-2.30249318111985 
538	-0.766933960249707 
539	 0.525094482716862 
540	 0.38985170808108 
541	-1.06098298043409 
542	-1.51837226237068 
543	-2.29243419974387 
544	-2.5727551242769 
545	-0.463359074561763 
546	-0.164375837400385 
547	-0.897060987192605 
548	-0.957003245772034 
549	-0.81583830733722 
550	-0.750417849187291 
551	-0.794157180497395 
552	-0.429015652407408 
553	-0.304930630472948 
554	-0.308207053654662 
555	 0.227769205590644 
556	-7.95561357840131E-02 
557	-1.04719393793238 
558	-1.87727711874803 
559	-1.02804242519214 
560	-6.32252026701517E-02 
561	-0.264220987127759 
562	-2.06824468971656 
563	-1.14417809836646 
564	 1.64423615341636 
565	 0.397320704365596 
566	-0.698840103329501 
567	-0.985330901367139 
568	-0.830335541776998 
569	 0.236764028205763 
570	 0.450527268078493 
571	-0.9682110289042 
572	-1.12969590734086 
573	-1.75600658746088 
574	-2.68196041697542 
575	-1.33048752984133 
576	-1.03805859620606 
577	-1.68248774595453 
578	-1.73064171327353 
579	-0.65267998133618 
580	-0.647651234811994 
581	-2.7549017017787 
582	-2.08599018284313 
583	-0.882185057475196 
584	-0.486170429193221 
585	-0.948866449020004 
586	-0.483735294077452 
587	 0.162874457253515 
588	-1.01107159445094 
589	-1.73042391304974 
590	-1.76239833608868 
591	-1.34576117603527 
592	-0.716287771747311 
593	 9.14224552754662E-02 
594	 0.609700742395019 
595	-0.873878521284973 
596	-1.24695912587896 
597	-0.357561190600442 
598	-0.036007516361676 
599	-0.829036965069334 
600	-1.67464040301509 
601	-1.40735646201778 
602	-1.71261305945045 
603	-1.66153577317949 
604	-0.881260936863336 
605	-0.801699325646218 
606	-1.0701012684117 
607	-1.40603620881715 
608	-1.50247173927924 
609	-2.049552947855 
610	-2.69246371043041 
611	-2.78198670305306 
612	-2.62297899123139 
613	-1.83331907256834 
614	-0.430536894906449 
615	 0.189548836107865 
616	 0.658363951861933 
617	 0.822686423073707 
618	-0.536426361739947 
619	-1.80977010202156 
620	-2.47276704578344 
621	-2.48931690230585 
622	-2.43367144976776 
623	-1.63323422679008 
624	-4.00840175767866E-02 
625	-0.904839622000093 
626	-1.85234855634999 
627	-1.76868378647161 
628	-1.67307476227964 
629	-1.25158766091993 
630	-0.933309333628165 
631	-1.43837055468308 
632	-0.30095790905244 
633	-4.01482669053274E-02 
634	-2.66411590600619 
635	-1.57271277751267 
636	-1.22190281290399 
637	-3.04218745391623 
638	-0.677294079649401 
639	 0.414396377649096 
640	-0.448206416481308 
641	-0.732407505759531 
642	-1.58453678442586 
643	-2.0367993381631 
644	-1.11921721406073 
645	-1.7359408213626 
646	-1.81939729390314 
647	-0.573583617855552 
648	-1.80188215284907 
649	-2.37505267692239 
650	-1.6690363619649 
651	-1.33415472998669 
652	-1.80040900373812 
653	-2.29809444709296 
654	-1.72206764868384 
655	-1.11027387935728 
656	-0.976232480864069 
657	-1.32188635173063 
658	-0.661299859742878 
659	-0.913971132321848 
660	-2.09371523090694 
661	-1.69324958963557 
662	-1.36449632736248 
663	-1.57332604683762 
664	-2.2412810449105 
665	-1.88481474301182 
666	-1.07522663349975 
667	-0.621464652355812 
668	-0.632268589363735 
669	-0.972373443683157 
670	-1.419904446988 
671	-1.66595317541346 
672	-1.11210972549273 
673	-0.548009000300689 
674	-1.46339497951864 
675	-0.875371903804924 
676	 0.404270597823216 
677	 0.792545373006714 
678	-0.735245423739978 
679	-2.09817743936322 
680	-2.27340017839483 
681	-2.57707763604119 
682	-1.87806214544293 
683	-0.900129987240709 
684	-1.59928062459414 
685	-1.42356917117201 
686	-1.11281177468036 
687	-1.77911775544268 
688	-1.26793415944687 
689	-0.719451570643401 
690	-1.04039444315214 
691	-2.26386885505356 
692	-2.82029564036724 
693	-2.48260369135662 
694	-2.14092042990256 
695	-2.62567322359118 
696	-2.4889811077021 
697	-0.434709619522028 
698	-2.32799159053934 
699	-3.9234308733738 
700	-2.51538518202466 
701	-2.06831758154034 
702	-1.62870179753 
703	-1.29710829101345 
704	-2.18202473340149 
705	-2.43837785290504 
706	-2.23262867505274 
707	-2.36060560863405 
708	-2.48550282955328 
709	-2.08958921426079 
710	-0.86984277663329 
711	 1.30961126194784 
712	 0.640455152807476 
713	-2.30933249064706 
714	-1.85101416170541 
715	-0.530407024911399 
716	 0.277121840530435 
717	-0.360455909781118 
718	-0.8346158498559 
719	-1.0220339673582 
720	-1.17629736149671 
721	-2.19486771628604 
722	-2.10264395606749 
723	-0.959641469093591 
724	-1.47112596437473 
725	-1.90485245615934 
726	-1.71032012847836 
727	-0.870379562244554 
728	-0.715001238109043 
729	-1.2781224038143 
730	-1.93657638714805 
731	-0.464431263294339 
732	 0.428416094633976 
733	-0.315964108780026 
734	-1.68769196894452 
735	-3.01042340759799 
736	-3.14571968094139 
737	-1.20421717986167 
738	-1.43048021712834 
739	-2.01156510243764 
740	-1.18003377706388 
741	-1.09507006494427 
742	-0.679469061910028 
743	 0.146179206939267 
744	 4.90052195245919E-02 
745	-9.61204139146953E-02 
746	-0.968018121249871 
747	-3.47460856413235 
748	-3.31312338007197 
749	-2.02514648258669 
750	-1.45446174807282 
751	-0.929084313974327 
752	-0.188265059104867 
753	 5.88679542415911E-02 
754	-2.48011473234098 
755	-3.04537642074397 
756	-1.74619939497047 
757	-0.81852704930001 
758	-1.60982533509293 
759	-1.56673119767052 
760	 0.534212317178132 
761	-0.454007489929582 
762	-1.51746404846616 
763	-1.55897000893705 
764	-1.74283254347724 
765	-0.94171648595251 
766	 7.63757174853793E-02 
767	-6.84111086443384E-02 
768	-0.985699446706346 
769	-2.30678266721556 
770	-3.4678396960073 
771	-3.47761949139466 
772	-1.8893090200189 
773	 8.10540518658991E-02 
774	-0.65340092499743 
775	-1.32867661275622 
776	-1.38408850359185 
777	-1.05488804374107 
778	-1.17071054784137 
779	-1.27608442491873 
780	-1.09767869928368 
781	-1.25640931672209 
782	-0.698176946268896 
783	-0.29479002703137 
784	-2.54553667049567 
785	-2.56225040407116 
786	-1.69245475407954 
787	-2.26325007971116 
788	-0.768551777783322 
789	-0.73575726975218 
790	-2.9278513421729 
791	-1.14304065740967 
792	-0.682465681479457 
793	-1.42702865753636 
794	-0.179141790868614 
795	-1.04645122011478 
796	-1.93114261798055 
797	-0.519979239370604 
798	 0.51680986459039 
799	-0.406593092151561 
800	-2.69064378887438 
801	-2.3690755557839 
802	-0.854878305883883 
803	 0.637460868255672 
804	 0.890249978347005 
805	 1.09273295682785 
806	 0.314211901905608 
807	-1.82363516087738 
808	-3.3866622375735 
809	-1.91853822444401 
810	 0.789884657462763 
811	-1.91352404495497 
812	-2.47748627430573 
813	-1.94543646984607 
814	-3.34251781842091 
815	-2.73476466265643 
816	-1.11290798258895 
817	 6.25231372597902E-02 
818	-0.846432000697938 
819	-2.07759538243684 
820	-2.46660882755721 
821	-1.29252270337814 
822	-1.98392291659786 
823	-2.63374388199606 
824	-1.26243305507681 
825	-0.950824219421065 
826	-1.89005114658824 
827	-2.86461579115218 
828	-0.428739821873241 
829	 4.7772621481769E-03 
830	-0.84730961994548 
831	-0.249203706229028 
832	-2.16830637853984 
833	-3.46566292252078 
834	-2.0749844807611 
835	-0.805137774023576 
836	-0.418036786193837 
837	-0.581670752914502 
838	-3.11238264843215E-02 
839	-1.89542381911977 
840	-2.69051655766267 
841	 0.492212401377874 
842	-0.254152837300178 
843	-1.33582504992455 
844	-1.20326283407665 
845	-2.30700614482827 
846	-1.89676832545852 
847	-0.864452457463652 
848	-1.35276340398301 
849	-1.81480120265564 
850	-1.85432597030323 
851	-1.54751900261024 
852	-1.88642311392002 
853	-1.43126470225432 
854	-0.940605538996414 
855	-2.60581021508083 
856	 0.127475129510353 
857	 1.62656024837369 
858	-2.79155902591897 
859	-2.04908056685474 
860	-1.477303855826 
861	-2.70094523876128 
862	-2.06928076858726 
863	-1.58152667632574 
864	-0.997226900430188 
865	 0.138594317160181 
866	-1.29882842635875 
867	-2.71105165823563 
868	-2.36607084795287 
869	-0.98715042814592 
870	 6.85450442241391E-02 
871	 0.161005585767222 
872	-0.744701893020018 
873	-0.672238611649504 
874	-0.771006372282108 
875	-1.71408895646963 
876	-1.29667987427892 
877	-0.574853221469838 
878	-0.315496232777114 
879	-1.06180086863907 
880	-2.13192349847037 
881	-2.11798270543537 
882	-0.532520800348839 
883	-1.0523912914598 
884	-2.12054196769474 
885	-2.47178633955524 
886	-1.24480091550652 
887	-2.39590859216854 
888	-3.61782743855236 
889	-1.87525756606205 
890	-2.0013506728786 
891	-2.04353466412931 
892	-1.17703671705732 
893	-0.990662882989447 
894	-1.1611254124624 
895	-1.31634285145171 
896	-1.15868021569836 
897	-1.75055087674369 
898	-1.86828467367902 
899	-1.09037686828374 
900	-1.0324227943272 
901	-1.01459519073845 
902	-1.12069884508881 
903	-1.6422116044743 
904	-1.66051067640619 
905	-1.86505727880968 
906	-2.22581418387332 
907	-8.43822886906978E-02 
908	 9.04853170767248E-02 
909	-1.36592091896823 
910	-1.48702746124108 
911	-2.97072320380662 
912	-3.31619506561215 
913	-1.1743287735104 
914	-0.17642834084164 
915	-0.564530513417189 
916	-1.36462910984569 
917	-0.791138180418003 
918	-0.518513961177096 
919	-0.251184483407956 
920	 0.105644583434743 
921	-1.14209190607562 
922	-1.85186728356312 
923	-1.28629594660296 
924	 7.21502675587329E-02 
925	-1.0280520480485 
926	-1.90631536952276 
927	-0.534644932483897 
928	-0.42016015142119 
929	-0.806185066663647 
930	-1.15495893586316 
931	-1.07488071719271 
932	-0.7767378851655 
933	-0.649488554814458 
934	-1.09363239981911 
935	-2.77399019506512 
936	-2.52765090967973 
937	-1.09007026158157 
938	-1.80200764835798 
939	-1.27734081100779 
940	-0.324501176084708 
941	-0.170647817342265 
942	-1.21061613435083 
943	-2.09716631647558 
944	-2.79189338813925 
945	-3.85685102764354 
946	-1.58359147537567 
947	-5.23845618646245E-02 
948	-1.50374924500181 
949	-0.332703440726213 
950	-1.37564082545973 
951	-3.03143795808114 
952	-0.967573627801281 
953	-0.692414813814384 
954	-1.64819446060784 
955	-2.44011984930056 
956	-1.42340882483704 
957	-1.22071911369479 
958	-1.41664511773579 
959	-0.663928044074216 
960	-1.36950274159019 
961	-1.34543081002371 
962	-0.47192235242525 
963	-2.88479559593795 
964	-2.66183480912858 
965	-0.824112635525417 
966	-7.4964520444819 
967	-6.62234495919751 
968	-3.60027223768372 
969	-2.31114788447362 
970	 2.76278882641828 
971	 4.60500791024867 
972	 3.31222132409631 
973	 2.3244287762262 
974	 0.987793597044656 
975	 0.694073177357961 
976	 0.392195741962533 
977	-1.39362138530893 
978	-1.27722938564456 
979	-1.15642508581658 
980	-1.06046899691718 
981	-1.41060293751635 
982	-0.057169651026633 
983	 4.46168418352303 
984	 4.69014211720826 
985	 3.98005364986924 
986	 3.58443579563304 
987	-0.4815522465556 
988	-0.993957144684528 
989	 2.38746426555675 
990	 2.19607571342635 
991	 2.22439779198818 
992	 1.58696130110679 
993	-2.26439735371136 
994	-4.01235541894253 
995	-1.19910600148463 
996	-2.2492714286859 
997	-0.397212562695765 
998	 2.95748702448462 
999	-0.230289809474282 
1000	-2.5330934451081 
1001	-3.17884208620574 
1002	-5.02522495835036 
1003	-3.41992113429115 
1004	-3.91400980912261E-02 
1005	 1.30828041321793 
1006	 1.70922199371652 
1007	 2.31743812498289 
1008	 2.29509767915227 
1009	 1.22724590117722 
1010	 1.82578899186984 
1011	 1.16451152500088 
1012	-1.91188394645977 
1013	-5.37522190859701 
1014	-5.47722686754464 
1015	-5.33705113908055 
1016	-5.05374486068737 
1017	-0.983430633151096 
1018	-1.86927952908437 
1019	-5.21476351906073 
1020	-5.70651138858934 
1021	-7.99646755820795 
1022	-7.6618724558548 
1023	-5.35587924523526 
1024	-0.114794955059028 
1025	 3.43159412465379 
1026	 5.28636041431593 
1027	 5.08083532223771 
1028	 2.46643991812811 
1029	 0.112830536990257 
1030	 1.00288048068724 
1031	 1.63301269624423 
1032	 2.62859564335157 
1033	 2.84422091044479 
1034	-0.720510584839895 
1035	-3.76908934561189 
1036	-4.96785734416473 
1037	-5.31208686818744 
1038	-4.63899268650062 
1039	-2.32405336947145 
1040	-0.959663745670163 
1041	-1.13341907396086 
1042	-0.624174337319198 
1043	 0.109093411571813 
1044	 2.18733665232627 
1045	 2.26195946948959 
1046	 0.935628973253364 
1047	-1.13264579068717 
1048	-5.94724660109876 
1049	-7.61405974633272 
1050	-8.09183147303773 
1051	-9.70940042398383 
1052	-4.647598725519 
1053	-0.63546697404955 
1054	-2.85132475627963 
1055	-3.53305834262868 
1056	-5.10207056820529 
1057	-5.09492039372732 
1058	-4.35652233311186 
1059	-3.09692199407354 
1060	 0.582535370006394 
1061	 2.01763976980138 
1062	 2.85030995104945 
1063	 0.193931712141716 
1064	-0.475551723726196 
1065	 0.600918490789291 
1066	-3.02390342309826 
1067	-1.69692637647872 
1068	 2.14299215071081 
1069	-1.05758856962652 
1070	-2.83900555931055 
1071	-3.58045381418766 
1072	-5.77917937863902 
1073	-6.95028290332744 
1074	-5.42109663287935 
1075	 1.24460008968583 
1076	 2.85461708163119 
1077	 6.13389817108418 
1078	 5.20619423901079 
1079	-4.83144511294732 
1080	-6.90158450201514 
1081	-6.44507093185201 
1082	-6.50538745296329 
1083	-4.05994276571438 
1084	 2.34049228147017 
1085	 2.82003705617223 
1086	 6.08507572811399E-02 
1087	 0.146850082960144 
1088	-1.02736781114494 
1089	-0.579068686479329 
1090	-0.926217009701515 
1091	-1.10632181629704 
1092	-1.01287057047245 
1093	-0.955981806549747 
1094	-0.966556524639194 
1095	-0.816902413325853 
1096	-1.81660988437014 
1097	-1.7179358537562 
1098	 0.246674350068627 
1099	 9.72781657093825E-02 
1100	 0.582692366323297 
1101	-0.431590267009379 
1102	-6.00880119598786 
1103	-7.47668680123575 
1104	-6.06320419910097 
1105	-7.5801060840908 
1106	-6.34163126827509 
1107	-3.55258994712073 
1108	-2.94584206560343 
1109	-0.838746137229112 
1110	-0.737489848852325 
1111	-1.34650162868215 
1112	-1.45707376206741 
1113	-2.92503718523145 
1114	-3.22919481460594 
1115	-2.33331258877256 
1116	-1.77472833399228 
1117	-1.44762878924759 
1118	-0.958769223756732 
1119	 0.904548846978737 
1120	 1.01486443698901 
1121	-1.21015992932095 
1122	-1.24948452832227 
1123	-0.871020147692452 
1124	-0.557093248484568 
1125	 1.65863287165418 
1126	 3.69874749435932 
1127	 2.40383836917461 
1128	-1.35686581807745 
1129	-3.46572711042991 
1130	-7.81951445009856 
1131	-8.89909751624547 
1132	-8.03430731391511 
1133	-7.15445338888031 
1134	-4.79009033417686 
1135	-3.32706780668221 
1136	-0.778168083800324 
1137	-0.131459590519077 
1138	-0.700418504426212 
1139	-1.32454877686092 
1140	-4.51663291948471 
1141	-4.70328521908004 
1142	-2.5316716135892 
1143	-1.91833823317231 
1144	 0.546128542947665 
1145	 1.03558448540604 
1146	-1.75193637716589 
1147	-2.99320712676288 
1148	-3.97947265579241 
1149	-5.44478761843705 
1150	-5.12177903947342 
1151	-2.8739664890197 
1152	-2.47794511474596 
1153	-2.71996874148244 
1154	-1.30924064220265 
1155	 0.628177857993528 
1156	 1.38542861081649 
1157	 3.39985881040954 
1158	 4.22702019290904 
1159	 2.61610030970517 
1160	 2.47592422630957 
1161	 4.37922188663283 
1162	 3.95998548886033 
1163	 1.95204202472792 
1164	 0.456623658203009 
1165	-2.95471318691714 
1166	-4.53230561571749 
1167	-4.66832309861046 
1168	-4.89231255458016 
1169	-3.86773132661247 
1170	-3.5050401718154 
1171	-4.07214231801045 
1172	-5.82192373862241 
1173	-5.63735152170081 
1174	-6.06948843246568 
1175	-4.29405181796099 
1176	 0.97119589504635 
1177	 2.49967020535844 
1178	 3.02043220135847 
1179	 3.79932615748035 
1180	 2.61529396772006 
1181	 2.32714450447311 
1182	 5.04350955624046 
1183	 3.96057947082606 
1184	-1.65876551406508 
1185	-3.20112717096018 
1186	-5.63569904347387 
1187	-6.10718103529755 
1188	-2.23552119242222 
1189	 0.28087427940701 
1190	 3.06264245509622 
1191	 5.58447100654447 
1192	 6.47925659697482 
1193	 8.30104580446942 
1194	 9.01946509213867 
1195	 8.43339611111742 
1196	 7.69596086036811 
1197	 6.26685683871421 
1198	 5.34843940354322 
1199	 4.30221112348903 
1200	 2.51098609003868 
1201	-0.373003604382562 
1202	-1.30805866530352 
1203	-2.56209268431565 
1204	-2.24071713743275 
1205	 2.51399008571451 
1206	 3.265658092914 
1207	 0.5214368739474 
1208	 0.985971275714147 
1209	 1.41354920049304 
1210	 1.74671700987594 
1211	 4.18640684030518 
1212	 7.44199002041417 
1213	 4.92220420272432 
1214	 2.45762410525323 
1215	 0.737332342101282 
1216	-1.96782754125908 
1217	-3.22949380731826 
1218	-2.36097883068134 
1219	-2.49572267299199 
1220	-2.3390262839702 
1221	-0.973847690196247 
1222	 1.41565583480864 
1223	 2.9084337267319 
1224	 6.20942703027956 
1225	 6.29051697306318 
1226	 4.01390507925007 
1227	 3.59734416498228 
1228	 2.04816107778773 
1229	 1.22933930917673 
1230	 3.29451974369893 
1231	 1.83615956814381 
1232	-4.81409309762052 
1233	-5.76844898479429 
1234	-3.89852470380058 
1235	-3.88800993777313 
1236	-1.6952254895192 
1237	 1.3248959682214 
1238	-0.784989001656969 
1239	-5.49262267252099 
1240	-7.853973639871 
1241	-6.61236952413511 
1242	-4.98199541612804 
1243	-4.99012142116339 
1244	-4.9012739562679 
1245	-6.02310908700356 
1246	-9.27584720767598 
1247	-11.4321477474537 
1248	-11.2513950833074 
1249	-12.0530205729469 
1250	-10.7460863675432 
1251	-4.90261768829007 
1252	-3.16485407887524 
1253	-3.01105150699546 
1254	-2.37389089393964 
1255	-4.00927801499714 
1256	-4.19672786646893 
1257	-2.58654989661491 
1258	-1.70747456536007 
1259	-1.65500755578123 
1260	-1.02681148141214 
1261	 0.22159263132537 
1262	 0.803256050102036 
1263	-2.65097288761026E-02 
1264	 2.9259258466169 
1265	 3.9112181536984 
1266	 2.23709073022592 
1267	 2.38302934059402 
1268	 0.29717825385056 
1269	-0.929544231591554 
1270	-0.606659788634132 
1271	-0.319946914667582 
1272	-0.617003580926207 
1273	-1.57326001220878 
1274	-0.996038003474393 
1275	 0.352573308562358 
1276	 2.19384263739248 
1277	 1.5971795792209 
1278	-1.0640405084224 
1279	-1.7714184413586 
1280	-3.59753347926737 
1281	-4.17804688015979 
1282	-2.5978371068139 
1283	-1.65109923818746 
1284	-0.293623443175301 
1285	 0.108826427469979 
1286	 0.981019095424425 
1287	 1.27081800808631 
1288	 0.407496426262552 
1289	-1.14174323892215 
1290	-1.38004360995106 
1291	-3.11050031770371 
1292	-4.52465843193851 
1293	-6.82640509584181 
1294	-7.41479372806344 
1295	-7.38784044467797 
1296	-7.319809510269 
1297	-5.10091648883974 
1298	-3.26303023716511 
1299	-0.638734623355242 
1300	 3.09069342745657 
1301	 3.10740047367478 
1302	 0.362241439649543 
1303	-1.68690070334942 
1304	-3.76364389176761 
1305	-5.3033844449399 
1306	-7.26126156238014 
1307	-7.86330275535932 
1308	-6.81804856000107 
1309	-5.99895957658682 
1310	-4.54494006115231 
1311	-4.07494331506211 
1312	-3.33766749443164 
1313	-3.76329734452818 
1314	-3.87075115574295 
1315	-3.10547570916082 
1316	-2.22508214470558 
1317	-2.60181141254932 
1318	-1.73073217517112 
1319	 0.32541521009615 
1320	 2.91966867061386 
1321	 4.34542538049958 
1322	 4.16663428103016 
1323	 4.15496661775934 
1324	 1.79205997915562 
1325	-2.81111135296838 
1326	-4.48383408231611 
1327	-5.31712601283662 
1328	-6.20309866166294 
1329	-4.98167233415449 
1330	-4.00244702065701 
1331	-3.35163647113523 
1332	-4.91426862951155 
1333	-6.28567288865153 
1334	-5.78405804645966 
1335	-8.84684389292762 
1336	-8.94791516396601 
1337	-8.43313219967602 
1338	-12.4459954974006 
1339	-11.6483032073855 
1340	-10.9064236695177 
1341	-9.9409643610813 
1342	-6.63005032085198 
1343	-6.13586427457745 
1344	-3.97335600814288 
1345	-1.87245515839893 
1346	-8.30109940749085E-02 
1347	 1.40255372562778 
1348	 3.14621023126454 
1349	 4.14828673556187 
1350	 3.68208166300075 
1351	 3.63506344168398 
1352	 4.74611742421355 
1353	 4.7807763759702 
1354	 3.45024027713059 
1355	 4.19579204691494 
1356	 4.05536371191494 
1357	 2.75423570889736 
1358	 1.42884861795902 
1359	-0.928984746922109 
1360	-2.41702349846527 
1361	-4.88251435636851 
1362	-5.84962083817892 
1363	-5.53769405892343 
1364	-7.3718065995523 
1365	-8.60127978327579 
1366	-8.31390238388553 
1367	-8.79496890632037 
1368	-7.47804852898136 
1369	-3.39431923965839 
1370	-2.35598245086215 
1371	-1.32977225674389 
1372	 2.64154353968151 
1373	 4.38088907656407 
1374	 4.5881518417538 
1375	 3.14247125499206 
1376	-0.652218825140832 
1377	-3.55332113450276 
1378	-6.02855179275528 
1379	-6.04835999933673 
1380	-2.66645478441189 
1381	-0.832446640510055 
1382	 1.46668967279748 
1383	 3.46159864867703 
1384	 2.34695834892887 
1385	 3.06824612246123 
1386	 2.88750216580743 
1387	-0.49458522081589 
1388	-1.11562762240923 
1389	-0.571479645135749 
1390	-1.24896782101527 
1391	-0.42635427514691 
1392	 0.224395811945739 
1393	-2.0753860456454 
1394	-2.1444315648427 
1395	-0.140931352263561 
1396	-0.948191611241531 
1397	 0.298726884787398 
1398	 2.03839131449694 
1399	-2.31610422604313 
1400	-5.23889315295349 
1401	-7.49340559658408 
1402	-9.2658996096011 
1403	-7.25428217061998 
1404	-3.70274698260581 
1405	-1.85396991085534 
1406	-0.922508824908476 
1407	-0.907720788498193 
1408	 0.329237413471496 
1409	 0.377739088961011 
1410	-3.05343896792723 
1411	-1.84106497166282 
1412	-2.44182098688465 
1413	-3.09761283203601 
1414	 4.57062908883017E-02 
1415	-4.61927989637489 
1416	-8.7547802405243 
1417	-8.66218174127382 
1418	-9.75956292326788 
1419	-7.28611623113494 
1420	-3.58612870396213 
1421	-2.74275923438494 
1422	-2.54049453257614 
1423	-2.50134514145208 
1424	-4.70450690041519 
1425	-4.56187370488591 
1426	-2.28438733018453 
1427	-1.89180600297542 
1428	-0.13357864609148 
1429	-1.80510022353413 
1430	-5.7184144586758 
1431	-4.82689573733968 
1432	-4.22223633373585 
1433	-2.91379180610273 
1434	 0.777956384382599 
1435	 1.91814111772751 
1436	 0.942292865109424 
1437	-1.66444538126275 
1438	-3.59856280695599 
1439	-4.93878012826336 
1440	-7.36954155475384 
1441	-7.11359983019266 
1442	-7.43975781355253 
1443	-9.32159893473614 
1444	-8.39175363681226 
1445	-6.76585742184486 
1446	-2.65524288024892 
1447	-0.920433913191828 
1448	 0.192273221815786 
1449	 0.895203906067476 
1450	 0.35253300186066 
1451	-7.37849537137527E-02 
1452	-0.659143247792288 
1453	 0.85117075340395 
1454	-1.7265857695288 
1455	-5.00985203386789 
1456	-4.53446504208911 
1457	-4.66971409178467 
1458	-0.286798852401177 
1459	 4.50659637042495 
1460	 4.25906217487068 
1461	 3.328279830202 
1462	-0.503128210335148 
1463	-3.55814043628118 
1464	-2.19503938966541 
1465	-2.29382962782121 
1466	-2.22969313290822 
1467	-1.72918286803669 
1468	-4.75286183085579 
1469	-6.01306517688262 
1470	-4.47815537133116 
1471	-3.23294639408372 
1472	-0.814334448685079 
1473	 1.28710376052849 
1474	 3.89241736199693 
1475	 4.79314043344235 
1476	 4.58594140374741 
1477	 6.39910645397892 
1478	 4.39695152026013 
1479	 1.30825337808393 
1480	 0.549293783811953 
1481	-0.458644783301303 
1482	-1.70439851847172 
1483	-1.69452393451053 
1484	-0.694504090394777 
1485	-0.546942175494679 
1486	 0.404548253424219 
1487	 1.80307977616209 
1488	 0.257685839286393 
1489	-2.38415922229776 
1490	-2.89491350768348 
1491	-3.84373001654056 
1492	-4.78932359639131 
1493	-3.24516615811763 
1494	-4.06720391227171 
1495	-5.68844972754316 
1496	-2.48301363037655 
1497	-0.28474201320877 
1498	-2.2564244677916 
1499	-4.25929816348254 
1500	-5.97826404244773 
1501	-7.21605773665164 
1502	-5.00115089067583 
1503	-0.204846686439002 
1504	 1.44005105967616 
1505	-2.11945787828739 
1506	-4.11123862116767 
1507	-6.50616624290503 
1508	-10.6739440342248 
1509	-10.7306628303497 
1510	-12.2169492635353 
1511	-12.2680672001139 
1512	-10.4081111429148 
1513	-10.8841858849181 
1514	-8.15556499825633 
1515	-5.90687166523267 
1516	-5.35782717124479 
1517	-1.52321899609581 
1518	-1.8663313746047 
1519	-4.19349280338149 
1520	-2.33172194687679 
1521	-4.82803058663407 
1522	-3.82996972591102 
1523	 0.690506277814888 
1524	 0.979996227165047 
1525	 2.08102741101273 
1526	 3.09276587029472 
1527	 0.650223519373396 
1528	-4.67672813778703 
1529	-3.86914069028408 
1530	-3.59285376331908 
1531	-6.25377695977637 
1532	-5.7666721263365 
1533	-9.35388995429121 
1534	-9.9846432478962 
1535	-6.31809659259576 
1536	-2.943895287905 
1537	 1.23978622179855 
1538	 0.599960493484186 
1539	-2.28113023670197 
1540	-4.78985938317565 
1541	-8.16605436870876 
1542	-8.23930910151338 
1543	-5.98696105008685 
1544	-4.61439673841265 
1545	-2.7807730481982 
1546	-1.65232107795797 
1547	-3.13198815526134 
1548	-3.39122792441403 
1549	-1.95869126818498 
1550	-2.27741156642514 
1551	-2.31168242416198 
1552	-2.49186845213676 
1553	-4.05177507691392 
1554	-6.45816394455449 
1555	-9.15516108915127 
1556	-10.3200495028421 
1557	-10.8982771327983 
1558	-9.41713291557948 
1559	-6.94757103487067 
1560	-6.44948403853081 
1561	-5.60012917958572 
1562	-4.21029376444849 
1563	-4.33185807733564 
1564	-4.32922790225737 
1565	-3.72729782749156 
1566	-3.47496331012877 
1567	-4.2555065241527 
1568	-5.09304266411475 
1569	-5.07829537231956 
1570	-4.8729536592365 
1571	-2.37914806800598 
1572	-0.699924789233649 
1573	-0.773188086969992 
1574	-1.41954211748775 
1575	-2.94953205267963 
1576	-3.38902544984533 
1577	-3.14942122746287 
1578	-3.33195011868304 
1579	-5.45916133783455 
1580	-5.48551059802544 
1581	-4.25736799377202 
1582	-4.24694180392821 
1583	-1.06195625877503 
1584	 1.07865549011491 
1585	 0.726530337227884 
1586	 0.416244947620756 
1587	-0.433013598647266 
1588	 0.708794111738337 
1589	 1.17648765499849 
1590	 0.888004001656377 
1591	 1.94476730778835 
1592	-1.09079335385598 
1593	-4.29585553746598 
1594	-6.3513184627945 
1595	-9.02524054560616 
1596	-8.22167027911765 
1597	-6.22678893158136 
1598	-3.15625464967324 
1599	-1.97765311667592 
1600	-2.52412103004118 
1601	-2.20067389001661 
1602	-3.89975337384991 
1603	-3.60354363111579 
1604	-1.36143651951324 
1605	-1.83180357713608 
1606	-2.51004735064356 
1607	-0.755348145129309 
1608	-2.12102715005507 
1609	-3.90290093473565 
1610	-1.52006821434502 
1611	-1.85546728940988 
1612	-1.12538521919878 
1613	 2.11650093728544 
1614	 0.823621572761796 
1615	-0.388100474290741 
1616	-0.896173203247328 
1617	-4.36125994937692 
1618	-4.84331978329651 
1619	-5.24051414876834 
1620	-7.18363965158202 
1621	-6.53327996116203 
1622	-7.63623325446889 
1623	-7.75438467792973 
1624	-6.05840835341839 
1625	-5.64479364352048 
1626	-3.97684602115632 
1627	-3.03794232544939 
1628	-4.22613834442505 
1629	-4.09984669482148 
1630	-3.73154793762865 
1631	-4.60659259975058 
1632	-4.15757120854418 
1633	-3.91944847422276 
1634	-2.94911930270583 
1635	-2.60253161825561 
1636	-1.04159243127051 
1637	-1.43539425429981 
1638	-5.00041119133444 
1639	-5.87702627790259 
1640	-7.33903946126678 
1641	-6.66627503246576 
1642	-0.860036880325023 
1643	 0.482422321186799 
1644	-0.860559544312451 
1645	-0.419931819500126 
1646	-1.03620621518111 
1647	-2.49645397999605 
1648	-2.68868446984916 
1649	-2.8201467409257 
1650	-4.56844209578012 
1651	-6.07010864408398 
1652	-7.73776216405244 
1653	-7.39505686352233 
1654	-6.64191593535393 
1655	-5.08075324908877 
1656	 0.638457639963483 
1657	 2.1771746579615 
1658	 0.763046143336533 
1659	 0.264228742622286 
1660	-0.734265631215613 
1661	-2.82839126402438 
1662	-6.38121677364191 
1663	-7.44231262236527 
1664	-8.43526118341591 
1665	-8.77348803977803 
1666	-6.03741847334166 
1667	-6.10839236384447 
1668	-8.89101431514383 
1669	-8.96525462621291 
1670	-8.3866007155344 
1671	-7.75637051005404 
1672	-5.64255706522255 
1673	-4.46945231674221 
1674	-4.45059725270664 
1675	-2.5778798603425 
1676	 0.513066562183521 
1677	 1.95190790045754 
1678	 3.83307972176134 
1679	 4.88063694138549 
1680	 4.69658573485772 
1681	 5.02113238745657 
1682	 6.00708381909874 
1683	 3.14877380813875 
1684	 1.20210594550629 
1685	-2.37701278677781 
1686	-3.575975032598 
1687	-2.20847815348917 
1688	-2.35357507471675 
1689	-2.28613238129067 
1690	-2.89778029492572 
1691	-5.39683223821517 
1692	-6.54751459373596 
1693	-8.11184332209463 
1694	-7.93722130376059 
1695	-4.94962859972469 
1696	-3.89970763967045 
1697	-3.31647335043446 
1698	-2.02600926065761 
1699	-1.62171645578688 
1700	-0.65800435069432 
1701	 2.8926221320021 
1702	 3.52433456525182 
1703	 1.73002878239416 
1704	 1.10402774376401 
1705	-0.746510790814942 
1706	-1.41814634857059 
1707	-1.71912237319382 
1708	-0.300534989821382 
1709	 3.24300363392082 
1710	 4.55916498983553 
1711	 6.81784341602621 
1712	 7.3638918842732 
1713	 5.39890039912875 
1714	 4.21752010716084 
1715	 2.63498375844649 
1716	 2.05672162294517 
1717	 1.31220247404022 
1718	 1.18465136587009 
1719	 2.74867426039158 
1720	 2.51712678167922 
1721	 1.78596100816158 
1722	 0.422926220313213 
1723	-2.31401041049534 
1724	-2.6391490715871 
1725	-2.96452345778355 
1726	-0.304703119408272 
1727	 1.09755188459019 
1728	 1.21406829456069 
1729	 3.58264651870459 
1730	 4.03318184620265 
1731	 3.79721033156014 
1732	 3.1361184233206 
1733	 1.92789532944998 
1734	-1.06367348249005 
1735	-2.02756306499607 
1736	-2.38100374404307 
1737	-2.40631899972215 
1738	-0.507344107329605 
1739	 0.502255324196725 
1740	 2.15872931672066 
1741	 1.8462531384179 
1742	-0.765056074864306 
1743	-1.23411078755854 
1744	-3.15566988310131 
1745	-2.18587883401161 
1746	 3.51866999962706 
1747	 4.30354355533598 
1748	 4.2112098871475 
1749	 3.30113517855331 
1750	-1.62207561048259 
1751	-2.23026489417122 
1752	 3.68430543083746E-02 
1753	-0.477537855616093 
1754	-0.861086283395238 
1755	-2.37183395447995 
1756	 8.70080302328165 
1757	 5.00018133800195 
1758	 8.76992253355137 
1759	 10.8553344835646 
1760	 11.568338585723 
1761	-5.70230499965632 
1762	-0.525026460821202 
1763	 8.11465553851231 
1764	 8.06028018875746 
1765	 3.80324050861229 
1766	 3.16182941709567 
1767	-0.439798915342558 
1768	-5.25831321324841 
1769	-11.499950643975 
1770	-10.3757953256661 
1771	-22.9638438742343 
1772	-33.8765454208788 
1773	-32.8177944522377 
1774	-26.5514010519971 
1775	-25.7008390615718 
1776	-11.4286265476653 
1777	-6.15704095172074 
1778	-13.5480036623625 
1779	-4.36842984545586 
1780	-4.37981416086804 
1781	-8.75795139652754 
1782	 2.3684714575326 
1783	-11.7673233842698 
1784	-11.4070500647015 
1785	-4.91168364694178 
1786	 8.37980140675747 
1787	 8.99422060743527 
1788	 20.8543390004706 
1789	 26.069627020128 
1790	 24.804350553709 
1791	 31.7127699631997 
1792	 26.3811253837414 
1793	 16.7862097376895 
1794	 14.0827617288813 
1795	 14.9526912397412 
1796	 2.09282149371106 
1797	-14.1974111483265 
1798	-21.6520281018517 
1799	-27.3555458997314 
1800	-38.33900117283 
1801	-31.1241788590752 
1802	-13.3336085667821 
1803	-10.1350173888469 
1804	-21.0599688023114 
1805	-17.2099885943459 
1806	-4.13392320663451 
1807	-11.5244176452761 
1808	-3.72076227136892 
1809	-3.8445030907704 
1810	-14.1268717973265 
1811	-5.1971769007407 
1812	-2.5763637796104 
1813	 3.77615451813052 
1814	 6.0122031785072 
1815	 4.77815358154726 
1816	 3.82165739031137 
1817	 0.682434554962564 
1818	 4.79338045306785 
1819	-6.46069045063863 
1820	-15.3056659822414 
1821	-16.3048350551348 
1822	-20.377719651749 
1823	-15.9148584338445 
1824	 6.44641795606863 
1825	 16.4203726504608 
1826	 24.7972143323877 
1827	 30.1306935932482 
1828	 32.7339189392747 
1829	 30.5989824616876 
1830	 29.5854061529325 
1831	 25.588704789605 
1832	 24.1768231199986 
1833	 25.9629908339173 
1834	 21.44144108735 
1835	 6.81156126531296 
1836	 5.66486158939137 
1837	 9.41990881446782 
1838	 10.1886759183535 
1839	 18.9323140233349 
1840	 33.5853649998011 
1841	 30.0145410419381 
1842	 9.03609026360904 
1843	 2.10358232376666 
1844	-10.2623890995176 
1845	-17.3248709008785 
1846	-14.8572294104794 
1847	-14.8619842932894 
1848	-19.3022449110546 
1849	-14.4882169037565 
1850	-9.5955225826111 
1851	-6.55070640262922 
1852	-7.17554111154564 
1853	-15.2432106442924 
1854	-14.7587885647393 
1855	-12.7360679498309 
1856	-11.6537784439879 
1857	-6.48577833478526 
1858	 1.58224749169678 
1859	-3.85872648851216 
1860	-8.07728558405979 
1861	 0.222272362773282 
1862	 11.6341312371662 
1863	 11.730486686055 
1864	 13.8161820189738 
1865	 10.0404595561996 
1866	-16.8899102170587 
1867	-23.2092418076881 
1868	-20.1102015032814 
1869	-8.74482124620935 
1870	-2.93892130071972 
1871	-3.03485662377484 
1872	-5.98175185858176 
1873	-17.3428488354449 
1874	-25.2187718132611 
1875	-26.9535331376989 
1876	-26.0798752503411 
1877	-23.3097945575572 
1878	-17.0583982260437 
1879	-5.06581142512795 
1880	 5.56131548450974 
1881	 8.77309357539893 
1882	 14.575459150678 
1883	 9.01527282660929 
1884	 2.52313501307527 
1885	-3.95468107743654 
1886	-19.8006858687341 
1887	-29.0538695069828 
1888	-38.5512700715823 
1889	-40.1277964389395 
1890	-35.1840737009091 
1891	-29.5270972007237 
1892	-18.2308353678871 
1893	-16.4952728812442 
1894	-18.5389507425082 
1895	-18.7817893412766 
1896	-19.0249486643408 
1897	-10.6823512044196 
1898	 5.6212746095277 
1899	 16.4653428667874 
1900	 34.954819696538 
1901	 47.2914517895122 
1902	 43.3896938949611 
1903	 39.2384742849194 
1904	 27.6692886957219 
1905	 19.1937346931037 
1906	 4.32253962205044 
1907	-9.35369823873954 
1908	-16.9734759726591 
1909	-28.1603851331622 
1910	-30.0887629828384 
1911	-18.3780538071956 
1912	-13.4578314173245 
1913	-7.26662489868108 
1914	 3.39606101235692 
1915	 3.36645605159011 
1916	-5.11373693596621 
1917	-4.63404952819027 
1918	-8.92430093579695 
1919	-16.4576569967279 
1920	-26.1507878138693 
1921	-27.4805221215578 
1922	-34.3536906016511 
1923	-32.3466767524076 
1924	-15.0063581728907 
1925	-7.85640719548708 
1926	-2.93162228584714 
1927	 2.03684576151236 
1928	 0.966377699142858 
1929	 6.92454610889142 
1930	 8.95132520679431 
1931	 9.20098507625101 
1932	 8.62821243429334 
1933	 7.6600738406154 
1934	 6.01739995383663 
1935	 4.99653035378714 
1936	 4.14004891477249 
1937	-1.21507881210984 
1938	-3.12508553809202 
1939	 2.4805613170112 
1940	-4.11064876169624 
1941	-4.20371561845597 
1942	-0.267019982944951 
1943	-9.92045362778243E-02 
1944	 0.310611918468265 
1945	-2.56342431024139 
1946	-13.2428410351384 
1947	-13.8054210462028 
1948	-11.4789822431038 
1949	-9.35014843217295 
1950	 3.69773174012661 
1951	 8.06041832615903 
1952	 5.85271838633476 
1953	 3.31281020314414 
1954	 2.65613703607641 
1955	-3.72152855041928 
1956	 1.87007827532518 
1957	 18.4767647401095 
1958	 24.6775149648263 
1959	 37.0347360693779 
1960	 38.5854963834944 
1961	 25.0508504399129 
1962	 19.8125578577483 
1963	 10.6860119934605 
1964	 7.90094114875917 
1965	 12.1342558003253 
1966	 16.4010737290446 
1967	 17.7812258141176 
1968	 24.5152196867533 
1969	 20.0011535602018 
1970	 6.96260713498429 
1971	-2.61298746467857 
1972	-23.4202460201093 
1973	-29.2702188382088 
1974	-26.5863756322889 
1975	-24.7236167583573 
1976	-11.284130430374 
1977	-4.98664195952508 
1978	-0.756406381713693 
1979	 1.10595026827273 
1980	-1.4089192555302 
1981	-12.4718265789733 
1982	-11.6585254120908 
1983	-8.56313007871398 
1984	-7.773529044004 
1985	 3.07377555813423 
1986	 3.75470715006339 
1987	-12.408335534778 
1988	-11.3641729431154 
1989	 3.21029103149709 
1990	 4.18633225271768 
1991	 5.78015597275216 
1992	 7.70856292692343 
1993	-11.2030320071208 
1994	-10.0070278568269 
1995	-9.89504690625321 
1996	-4.20204576012374 
1997	 4.30361320919222 
1998	 19.8876827810841 
1999	 23.1355119980757 
2000	 27.3851942181004 
2001	 28.0114989847381 
2002	 19.110430936042 
2003	 14.4502040625093 
2004	 15.0094238270751 
2005	 7.15915653429381 
2006	-6.47082806197999 
2007	-17.1587750830397 
2008	-23.6127810426246 
2009	-28.3648498984507 
2010	-24.8749868191099 
2011	-9.33235358768036 
2012	 0.32000640107351 
2013	 15.8345483660098 
2014	 22.8760055233862 
2015	 30.8808829498541 
2016	 26.6246395091063 
2017	 5.71618183266106 
2018	-2.09031114771677 
2019	-14.1229718674228 
2020	-19.3309079228477 
2021	-11.7029270990461 
2022	-18.852099535617 
2023	-15.006043208036 
2024	-16.7868229679826 
2025	-21.1729484610787 
2026	-23.8025047641258 
2027	-20.4924847682685 
2028	-25.3168006294082 
2029	-22.3120670856119 
2030	-3.62808283864101 
2031	-1.08616807287403 
2032	-7.58116778857145 
2033	-4.97710756814937 
2034	-15.4823000812026 
2035	-22.7894899186226 
2036	-17.0583965248856 
2037	-8.7206185707916 
2038	 5.55713601378199 
2039	 27.3033349734777 
2040	 34.370972519654 
2041	 31.5971008440269 
2042	 30.5366139313044 
2043	 23.0773369838733 
2044	 13.9766925389623 
2045	 2.47897849407909 
2046	-2.99139353303704 
2047	-13.793459897918 
2048	-16.2661805098126 
2049	-11.3929222440889 
2050	-5.02693013525108 
2051	 5.34661560071861 
2052	 20.9457143297262 
2053	 29.4975564590548 
2054	 35.1962273627731 
2055	 29.3063230211373 
2056	 23.1526546464276 
2057	 23.7339206119118 
2058	 23.5025336572889 
2059	 21.2879633806052 
2060	 17.9910713252474 
2061	 14.4447017225699 
2062	 9.3075138384845 
2063	 4.87752745067484 
2064	-2.82973285131613 
2065	 3.79297204839094 
2066	 4.6609447460737 
2067	 2.81278696675044 
2068	 16.3738265535333 
2069	 22.1210253853322 
2070	 18.5300248484193 
2071	 9.91352611279368 
2072	-14.4562162334573 
2073	-33.4151593150951 
2074	-46.8171419193748 
2075	-55.9931217092855 
2076	-53.6662758478452 
2077	-35.7820905269993 
2078	-29.3800137911359 
2079	-17.2261407952667 
2080	-8.27991000368172 
2081	-4.5017771108831 
2082	-2.24385288175973 
2083	 0.819800396014158 
2084	-2.5013128129284 
2085	-4.78288680913499 
2086	-10.3508670125669 
2087	-8.36480085064865 
2088	 1.7226206223168 
2089	 2.32168639313199 
2090	 6.47220110036897 
2091	 5.18727902046642 
2092	-1.5066076927691 
2093	 5.56004208064735 
2094	 8.26751087234458 
2095	 9.39348672005066 
2096	 15.4556508295612 
2097	 15.6399693106139 
2098	 9.61025698275686 
2099	 2.84776464714297 
2100	-0.901623082886472 
2101	 3.20037027086225 
2102	 12.0355927057953 
2103	 15.6037521604493 
2104	 23.8916311873719 
2105	 21.1709742604011 
2106	 8.91548970942109 
2107	 3.03490067755941 
2108	-13.7265301507708 
2109	-14.4208064163277 
2110	-9.83218059666915 
2111	-12.914678945561 
2112	-11.3844357369219 
2113	-22.1764109466433 
2114	-26.5515999176842 
2115	-37.1405451303733 
2116	-35.8075918785655 
2117	-20.7821825110107 
2118	-10.5658888602625 
2119	 1.12361399885991 
2120	 16.2005872072213 
2121	 19.5074974000338 
2122	 14.0620889277038 
2123	 9.70475092633403 
2124	 1.00171446751552 
2125	 2.48455446664058 
2126	 12.2995691992184 
2127	 22.0233936290233 
2128	 28.7825132336401 
2129	 29.3030516423672 
2130	 25.636814209089 
2131	 8.53933048104678 
2132	-4.73754660121343 
2133	-7.42949237154491 
2134	-13.744025287435 
2135	-15.2218030345888 
2136	-4.75083701191238 
2137	-6.04268496710216 
2138	-12.4913375917982 
2139	-15.9851679773998 
2140	-25.5681934140267 
2141	-24.196813239859 
2142	-20.5579360419408 
2143	-11.1895964515823 
2144	 6.94153486159635 
2145	 15.7317824073447 
2146	 17.4152458633879 
2147	 6.75933926846754 
2148	-2.99654393669954 
2149	-18.8770534692924 
2150	-36.9372590618925 
2151	-33.4366839481215 
2152	-32.4761377611583 
2153	-28.1574233609774 
2154	-11.3685215005431 
2155	-12.2434157937125 
2156	-21.1646446753081 
2157	-23.6776645685562 
2158	-24.0878467817623 
2159	-22.7995974628344 
2160	-20.5097520531735 
2161	-15.6689184331907 
2162	-9.52839332721379 
2163	-6.74298559859552 
2164	 8.01800671213222 
2165	 24.5667919834504 
2166	 34.1970407411258 
2167	 46.2291242911904 
2168	 43.8277314809248 
2169	 41.1490767650789 
2170	 41.533066619685 
2171	 25.8144371804217 
2172	 16.3970100036791 
2173	 14.5995178801022 
2174	 9.5456039813303 
2175	 15.6203505457914 
2176	 19.0394030896595 
2177	 13.5203876961116 
2178	 7.98285859287211 
2179	 0.763767546616499 
2180	 6.80442914825348E-02 
2181	 2.87343773768771 
2182	 4.24836270550426 
2183	 2.13183809849635 
2184	-2.68263383904962 
2185	-5.24556714877184 
2186	-11.4785913246663 
2187	-13.0716944190248 
2188	-7.00867745398824 
2189	-14.3123278686383 
2190	-20.8256976206014 
2191	-22.169916539026 
2192	-20.3999834416655 
2193	-5.63533968831255 
2194	 11.3935437807882 
2195	 21.1724406539449 
2196	 30.943125812775 
2197	 34.6587314347455 
2198	 37.0106319984287 
2199	 40.3649597924215 
2200	 28.647601417638 
2201	 19.8059170997265 
2202	 13.7651924889059 
2203	 9.14036102146892 
2204	 10.4696797559061 
2205	 8.27576380463216 
2206	 6.95135564601558 
2207	-5.03958250384864 
2208	-13.7241085649101 
2209	-17.7833133277399 
2210	-21.318268107734 
2211	-19.8103865557059 
2212	-19.1011496146436 
2213	-19.7745818723083 
2214	-17.588677098756 
2215	-15.3694534085399 
2216	-14.1714773653899 
2217	-7.81050946103065 
2218	-8.1171854478985 
2219	-14.2810702919617 
2220	-16.3154325802578 
2221	-14.3700950912342 
2222	-17.0747094529188 
2223	-9.17156669603455 
2224	-5.71028516812689 
2225	-11.5204798282957 
2226	-9.54073961857121 
2227	-20.8952001837196 
2228	-18.9379482967791 
2229	-4.94578497195059 
2230	 6.32978459116317 
2231	 24.2546236476325 
2232	 21.9753380589897 
2233	 8.30965382978042 
2234	-5.91375376948222 
2235	-15.069067736455 
2236	-5.13022455236596 
2237	 12.379936398292 
2238	 24.7071883090165 
2239	 30.9600989326213 
2240	 28.4147221968204 
2241	 12.4541879841686 
2242	 5.15614853300965 
2243	 0.191040905863926 
2244	-4.86106809351519 
2245	-4.36790149449278 
2246	 5.21279395417025 
2247	 2.93437490413011 
2248	-1.69312560598535 
2249	-5.99814856172754 
2250	-17.2143221713919 
2251	-21.9647412997079 
2252	-22.5092878669511 
2253	-19.0862349611583 
2254	-14.1730551729698 
2255	-9.62319152254094 
2256	 1.59611504509655 
2257	 7.02460590896477 
2258	 0.840438947089058 
2259	-1.8844781242211 
2260	-8.92432270316731 
2261	-18.3457883857043 
2262	-17.6107939210241 
2263	-16.8040949735034 
2264	-14.5154574187145 
2265	-16.6289346384769 
2266	-26.6668725144923 
2267	-27.9640252531046 
2268	-29.2625375118939 
2269	-26.0799335673624 
2270	-19.4407866801011 
2271	-13.0034989256326 
2272	-6.39528848338524 
2273	-1.18291793015822 
2274	 2.473362706296 
2275	-5.92786323284243 
2276	-4.59986851227266 
2277	-11.0072141409871 
2278	-21.0324165613088 
2279	-13.0622126802541 
2280	-12.9087952764891 
2281	-7.59349611785782 
2282	-0.902941912736967 
2283	-6.57277115374734 
2284	-18.1198434525485 
2285	-26.7760192162493 
2286	-30.0921394345879 
2287	-31.7725145300762 
2288	-28.2786863130119 
2289	-14.8914771038364 
2290	-11.176482176472 
2291	-8.43478995073268 
2292	-8.31227026749329 
2293	-14.6722706920151 
2294	-17.3995340055034 
2295	-17.5712133662412 
2296	-19.8564132960997 
2297	-22.9376678100569 
2298	-22.6954964458219 
2299	-27.380157415581 
2300	-22.9806239185889 
2301	-6.11869765851347 
2302	-0.543983261027256 
2303	 5.43606364496414 
2304	 6.51381970366199 
2305	-6.2006709969579 
2306	-11.581032236987 
2307	-12.2354012253685 
2308	-11.5266812172565 
2309	-12.0454710019413 
2310	-1.10508675273764 
2311	 3.61352423406602 
2312	 4.46199675728919 
2313	 3.13357020603613 
2314	 2.37065063951189 
2315	 5.09654608986795 
2316	-3.88871340737551 
2317	-1.31593212978573 
2318	 0.374564787684752 
2319	-2.59405532985908 
2320	 7.02523129850592 
2321	 11.9952029733615 
2322	 14.8543415846615 
2323	 20.8383868606816 
2324	 19.4573640850261 
2325	 22.2843154234413 
2326	 26.8573816935237 
2327	 14.3045944416986 
2328	 9.51304696762636 
2329	 4.96941833899926 
2330	-4.77572233695202 
2331	 13.1355665577054 
2332	 32.7976736594927 
2333	 40.2766831235183 
2334	 40.4052357218685 
2335	 20.9458933680737 
2336	-1.98678428454723 
2337	-17.4067815878184 
2338	-27.0706441734771 
2339	-26.4153216382539 
2340	-19.5872320791422 
2341	-13.1343998199212 
2342	-11.8619448198766 
2343	-15.3775796237865 
2344	-19.4502906431149 
2345	-20.1956803216861 
2346	-14.6976459637895 
2347	-11.0601026905194 
2348	-11.2345595424536 
2349	-11.0568363079802 
2350	-14.4658114386726 
2351	-14.860050746988 
2352	-7.70479624708088 
2353	-5.5741453295745 
2354	-5.21308498915345 
2355	-3.5126093103147 
2356	-5.89284463387499 
2357	-5.70512781419694 
2358	-5.47682689920344 
2359	-15.2177740954334 
2360	-22.3570406612254 
2361	-21.8004279681156 
2362	-21.0097987452675 
2363	-10.4553017631622 
2364	 2.6988513889758 
2365	 8.52029130377777 
2366	 10.2328087946559 
2367	 14.0290214129405 
2368	 12.6325985390012 
2369	 3.91102337464099 
2370	-5.33694342249146 
2371	-12.3001550121133 
2372	-13.7288962827404 
2373	-17.1700579485263 
2374	-12.3397777897577 
2375	-12.8725554184266 
2376	-19.8545239440907 
2377	-17.6950845232162 
2378	-23.56409785271 
2379	-31.4062035368889 
2380	-33.5687623193077 
2381	-35.2161898334531 
2382	-27.963526466075 
2383	-15.5236886903772 
2384	-12.4464181896515 
2385	-8.94183146901226 
2386	-10.6300900241396 
2387	-15.7213042948332 
2388	-7.71573931885129 
2389	-4.76566024294362 
2390	-2.48751441633778 
2391	 9.12916846503875 
2392	 12.3554309242638 
2393	 14.6607173489612 
2394	 13.2965303384559 
2395	 2.44841442843885 
2396	-7.1653878119457 
2397	-18.2053227999585 
2398	-16.1509199653851 
2399	-17.5362847852606 
2400	-21.9858423314136 
2401	-20.9996952971827 
2402	-30.7518053133954 
2403	-30.7668026140402 
2404	-23.2080645470031 
2405	-14.2870551810385 
2406	-2.21568358790718 
2407	 8.70386749723297 
2408	 8.205024530646 
2409	-2.44081842547955 
2410	-9.02430191117715 
2411	-12.1943972146514 
2412	-10.6721930767755 
2413	-5.65293335756598 
2414	-8.48089709839249 
2415	-14.149166090167 
2416	-13.7964300550864 
2417	-15.7536780175348 
2418	-10.982267076283 
2419	-9.50786007250501 
2420	-18.4552417909351 
2421	-17.928962958126 
2422	-13.2103470102574 
2423	-16.7526051269275 
2424	-18.2698453087128 
2425	-16.7498806388969 
2426	-18.5291723953395 
2427	-11.8222938438368 
2428	-5.1295585874694 
2429	-8.59983269479399 
2430	-9.92143999894824 
2431	-10.3229593789194 
2432	-10.9333440001364 
2433	-4.4718380069146 
2434	-5.37920071356113 
2435	-1.96383773583567 
2436	 7.15776147885237 
2437	 5.7561478295438 
2438	 9.06683473743648 
2439	 5.91403774510476 
2440	-7.24708983943871 
2441	-13.5409016505527 
2442	-21.0917725929782 
2443	-26.3525320594078 
2444	-21.3765952410021 
2445	-25.1064735994999 
2446	-26.9268148134432 
2447	-22.5326453682215 
2448	-27.5316225908309 
2449	-21.0489543178904 
2450	-13.4579546970282 
2451	-14.4657533028659 
2452	-8.21785937582613 
2453	-12.0928182493923 
2454	-7.30147158197181 
2455	 4.29140725626032 
2456	-4.91791747405296 
2457	-1.82918252005218 
2458	-8.53619226444254 
2459	-32.7253912642859 
2460	-27.0846170294117 
2461	-19.4347272130477 
2462	-17.6082109500146 
2463	-4.12420008406987 
2464	-12.1739967259404 
2465	-33.6110628505808 
2466	-41.7737936950646 
2467	-48.1399524689252 
2468	-53.5069329162845 
2469	-47.7356414804077 
2470	-48.1872671615427 
2471	-53.418926148675 
2472	-41.9514095716783 
2473	-32.5677943400293 
2474	-22.3689104337304 
2475	-0.642466839493107 
2476	 15.18812641238 
2477	 22.0921807845784 
2478	 27.8686813697214 
2479	 23.1267688386152 
2480	 21.2254563546366 
2481	 18.7006707224785 
2482	 16.1647217942476 
2483	 17.9384060583572 
2484	 7.94512989164724 
2485	 0.560652150443635 
2486	-7.1664263190667 
2487	-9.29024318621071 
2488	-3.38470651672489 
2489	 8.47660539996141 
2490	 30.0330011911207 
2491	 42.1377882529949 
2492	 50.2823375386023 
2493	 51.9516453323457 
2494	 42.2126806457064 
2495	 27.2519324461086 
2496	 15.5696696531618 
2497	 9.58945687136459 
2498	 4.72427573471781 
2499	 8.91192459417234 
2500	 6.75061600780118 
