Wavelength	4mm_grayABS00000.asd
350	 0.65432365217877 
351	 0.922147116308602 
352	 2.04280358498317 
353	 0.195413348217272 
354	-1.01047268503408E-02 
355	-6.52654928445624E-02 
356	-1.18270121012296 
357	-0.655030232332808 
358	 0.344436346540024 
359	 0.856300137438907 
360	 0.088936820476515 
361	-1.22549334610318 
362	-1.43602046721719 
363	 0.14909516373404 
364	-0.671445608827506 
365	-0.820049592334398 
366	 0.333664671461347 
367	 0.124045113729754 
368	-0.496725808599242 
369	-0.882465430014203 
370	-0.599647183933049 
371	-0.609968391862779 
372	 0.466673543793176 
373	 2.25578026876742 
374	 0.314256486108611 
375	-1.15909554523973 
376	-0.993430349410346 
377	 0.374554014932323 
378	 0.34086551696072 
379	 7.56324776431567E-03 
380	 0.450775965012839 
381	 1.01264443573632 
382	 0.25246896195217 
383	-0.841082761334461 
384	 0.797939345290462 
385	 0.662325316244751 
386	-0.250334079282088 
387	 2.32819023624344E-03 
388	 0.698413241340486 
389	 1.47890638853205 
390	 1.75994297505205 
391	 0.379575296679597 
392	 0.291862842382062 
393	 0.433783558429949 
394	-1.41151627763298 
395	-1.23085112453921 
396	-0.233351397371129 
397	 0.234460463417491 
398	 0.176271360813414 
399	 0.145923954132362 
400	-0.026949552196643 
401	-1.0153949533951 
402	-0.608373693530779 
403	 0.621074183646784 
404	 1.33336575488865 
405	 4.14731556341523E-02 
406	-0.920393022288349 
407	-0.655788247572482 
408	-0.583250661041052 
409	-0.534021969708646 
410	-8.89022556820483E-02 
411	 0.981688529266116 
412	-1.16870102784002 
413	-1.38774942797878 
414	 2.39365091992971 
415	 0.11236434770924 
416	-1.39635304917098 
417	-0.491072365879251 
418	 0.109306877721344 
419	 9.94094853499146E-02 
420	-0.18162937613647 
421	-0.243199011529701 
422	-0.441938814054528 
423	-0.78825822771077 
424	-0.91315791579313 
425	 0.518050892531757 
426	 0.924213160545111 
427	 7.53426146336181E-02 
428	-0.85914367736733 
429	 0.464601753883861 
430	 1.58191698127888 
431	 0.577484754556191 
432	 1.24562460192738 
433	 1.13659051110382 
434	 6.35573962633488E-02 
435	 0.959556729435426 
436	 0.621302245287419 
437	-0.349389485736103 
438	-0.144036063401001 
439	 5.35878712588629E-02 
440	 6.47899166003456E-02 
441	-0.110995448636531 
442	-0.319762983169948 
443	-0.822269824566227 
444	-1.20927583671936 
445	-0.441035860795225 
446	-0.676878122664893 
447	-1.06713914827818 
448	-0.226111511663429 
449	 0.638647533570214 
450	 1.13018853880906 
451	 0.810677967687448 
452	-1.58407377151247 
453	-1.19005247912453 
454	 0.932780543240246 
455	-0.26377933827409 
456	-1.2477507637396 
457	-1.32163178491807 
458	-0.623582179045496 
459	-0.147640469981239 
460	 0.352491065455317 
461	 0.627786767727731 
462	-0.995894841140672 
463	-0.627853579805148 
464	 0.626156276596919 
465	-0.849095656498521 
466	-1.30796698915591 
467	-0.794272444005628 
468	-0.218270387417717 
469	-0.940782430922518 
470	-1.01398691022743 
471	 0.163402987092534 
472	 1.25894710186423 
473	 0.331227741174297 
474	-0.939133286413904 
475	 0.594999028552003 
476	 3.66983783898117E-02 
477	-0.955294070424107 
478	-0.67856998485006 
479	-1.66885130345946 
480	-2.1629487323772 
481	-1.68287382947783 
482	-1.55026191535534 
483	-1.26399007264789 
484	-1.09542566774751 
485	-1.51766735225556 
486	-2.06403968128838 
487	-0.740687986048393 
488	 2.63738117959724 
489	 1.44915888574072 
490	-0.492495853084718 
491	-1.10875967974405 
492	-0.35716710797855 
493	-0.522329642989739 
494	-1.33084748282385 
495	-1.44483323795781 
496	-1.08762516237256 
497	-0.989291131572715 
498	-1.52242301850165 
499	-1.67323405601736 
500	-1.18411448425847 
501	-0.495132382447521 
502	-0.972077153916914 
503	-2.46810687044822 
504	-3.13870510050434 
505	-0.860871403010231 
506	-0.460854171874132 
507	-1.44608896559177 
508	-2.42186052028186 
509	-2.05825241610573 
510	-1.44309313368945 
511	-1.19499301457418 
512	-1.41042565865244 
513	-0.832988586436231 
514	-0.506747079105852 
515	-2.157440273003 
516	-1.83030788898986 
517	-1.26917215100305 
518	-2.15046396549748 
519	-2.43762479766214 
520	-1.95041914169407 
521	-1.42721967061246 
522	-3.26626106657039 
523	-2.76781475718065 
524	-0.628915907389933 
525	-0.117591279798493 
526	-2.05684346518497 
527	-3.39579601872835 
528	-1.96558085406053 
529	-2.20983877984074 
530	-2.2312084424752 
531	-1.1791799683585 
532	 0.174600269521442 
533	-0.416726083309604 
534	-1.80951660603266 
535	-1.11036130016171 
536	-1.78462243025164 
537	-3.08668647244678 
538	-3.39709186586645 
539	-0.971721688735666 
540	 0.607653815532891 
541	-0.281284943012299 
542	-1.73117830992812 
543	-2.6580319057012 
544	-2.77857800966126 
545	-2.44316110590821 
546	-2.22798330380015 
547	-2.19414409763864 
548	-2.13992493645741 
549	-1.22982266230363 
550	-0.858780081543502 
551	-1.47047298013867 
552	-1.23331882211824 
553	-1.19261893534989 
554	-1.31612056755601 
555	-0.851139871720617 
556	-1.09388865955958 
557	-1.40763832817242 
558	-0.992742315843618 
559	-2.07939804169074 
560	-2.13091563769573 
561	-0.546796083502522 
562	-3.10931638619819 
563	-2.78081547635396 
564	 0.589470008954111 
565	 0.856208129717063 
566	-1.0306499167874 
567	-2.64516666436804 
568	-1.37380744308144 
569	-0.379164450961295 
570	-0.132995419465405 
571	-0.434142567022196 
572	 6.00760262682511E-02 
573	-1.42721134039048 
574	-4.06789967306787 
575	-2.44133781486093 
576	-1.27323521518959 
577	-1.4090398824108 
578	-2.08140489977015 
579	-1.29323362089509 
580	-0.919350516758803 
581	-2.25693454082138 
582	-1.90687688514588 
583	-1.95094800576727 
584	-2.79851698374737 
585	-2.09584362425034 
586	-1.1046014332576 
587	-0.679986734674757 
588	-1.57409877823422 
589	-3.40448447004314 
590	-4.19125499132683 
591	-2.66266309774764 
592	-2.3446033707081 
593	-2.01997843813224 
594	-1.17566119660088 
595	-1.21735813001593 
596	-0.632577814100229 
597	-9.84504581789597E-03 
598	-1.32758014401139 
599	-2.32611824412184 
600	-2.45272328296494 
601	-1.90702752503884 
602	-2.46431400024161 
603	-3.44767506287891 
604	-3.91966878974305 
605	-2.52374658441283 
606	-2.14362613415965 
607	-2.90211036822383 
608	-2.41671144566418 
609	-2.31006515193425 
610	-2.43806259796043 
611	-2.20420974577904 
612	-2.210655287494 
613	-1.49998109363488 
614	-0.132327309566289 
615	-2.22678921388587 
616	-2.37253400382317 
617	-0.119776269571199 
618	-1.18287984267354 
619	-1.84569640553795 
620	-1.99835720733493 
621	-2.73089794772968 
622	-2.39903601051512 
623	-1.38737429978402 
624	-0.521959437429867 
625	-0.858203379636984 
626	-1.66473488631535 
627	-2.28994942461155 
628	-2.18759867215531 
629	-1.59428658831385 
630	-1.37740526525634 
631	-2.6699072963189 
632	-1.3837066392399 
633	-0.541365928486068 
634	-3.02296264533993 
635	-2.33116265359839 
636	-2.03355546023405 
637	-3.30212780692151 
638	-0.798773977867213 
639	-0.377983968800205 
640	-2.15971159235498 
641	-2.23703084615257 
642	-2.6139006962802 
643	-2.79890792727713 
644	-2.07667126564036 
645	-2.66002758464625 
646	-2.6156549321344 
647	-1.21217232867042 
648	-1.76301495286999 
649	-2.51665007701942 
650	-2.84230902491187 
651	-3.04418372695735 
652	-3.34252885748776 
653	-3.15023151469412 
654	-1.84472325489782 
655	-1.33255629937089 
656	-1.77878129566689 
657	-2.63664205957545 
658	-1.86053784499382 
659	-1.68663597663838 
660	-2.49115652516437 
661	-2.2704781176167 
662	-1.86719431227533 
663	-1.75963548122031 
664	-2.29486899544068 
665	-2.91653170176998 
666	-2.75070832021681 
667	-1.61106208499029 
668	-2.1545778346184 
669	-2.55020546317532 
670	-2.00880816691266 
671	-1.42656475896308 
672	-1.51587401096791 
673	-2.1744413006973 
674	-2.72532839115285 
675	-2.10924864418371 
676	-1.17360749643227 
677	-0.957459106956896 
678	-0.873273808695767 
679	-1.97907559473691 
680	-4.00976381875934 
681	-3.95546639462002 
682	-2.77777777148428 
683	-1.68052937340062 
684	-2.24472267020534 
685	-1.86153363154668 
686	-1.32122328887644 
687	-1.88019563281906 
688	-1.89660713802311 
689	-1.66222656084554 
690	-1.61005077202418 
691	-2.20858898642931 
692	-2.83129299789655 
693	-3.17426262672272 
694	-3.15973344524899 
695	-3.16031291419171 
696	-2.79525549964505 
697	-1.83336577412889 
698	-3.11730740499891 
699	-3.40612302441291 
700	-1.37916247601177 
701	-2.53221072957945 
702	-3.11073068328899 
703	-2.49958980488656 
704	-3.06109773611179 
705	-2.96283631277755 
706	-2.44071276709788 
707	-2.33674385425984 
708	-2.29901035578402 
709	-2.68991258686104 
710	-3.18373353430644 
711	-0.665120731221918 
712	-0.661418955053626 
713	-3.31807080944983 
714	-2.6234493485961 
715	-0.613899683885277 
716	 0.323273687857313 
717	-1.95278501182341 
718	-2.15988345684291 
719	-1.57234938995715 
720	-1.87212433163677 
721	-2.99692693820615 
722	-2.79034106426033 
723	-1.6469369523261 
724	-3.39432560326547 
725	-4.24019232175486 
726	-3.58307841021609 
727	-2.24507800019979 
728	-2.30180453792175 
729	-2.44473093355142 
730	-1.57629707233104 
731	-1.31151986878236 
732	-1.13678972817365 
733	-1.21635037420198 
734	-2.82131613338583 
735	-3.48217418096421 
736	-2.80090622301183 
737	-1.50914590431213 
738	-2.35991992299657 
739	-3.11207783712606 
740	-1.96374671035945 
741	-1.70642954273333 
742	-1.26493990367317 
743	-0.435999667009719 
744	-0.189723144619323 
745	-0.899720426844423 
746	-2.62311939025585 
747	-4.88057478522833 
748	-3.7999823338712 
749	-1.75453156451451 
750	-1.21564390596917 
751	-1.30102244275376 
752	-1.01239149252627 
753	-0.818248764827373 
754	-3.42631768338826 
755	-3.38971809696864 
756	-1.342617289486 
757	-0.495168822095442 
758	-1.8520682401065 
759	-2.45083945777167 
760	-0.814950203807775 
761	-2.6083937599479 
762	-2.93986163121691 
763	-1.32801518991304 
764	-2.68948344131263 
765	-2.80895019001367 
766	-1.28817707391173 
767	 0.595688864014465 
768	-0.301023918540445 
769	-2.01278627501886 
770	-2.79149070640475 
771	-3.90754290171012 
772	-3.20330431402233 
773	-1.15704065749226 
774	-0.996538536634032 
775	-2.17286987479942 
776	-2.72114944401202 
777	-0.869135922361629 
778	-1.39855390670776 
779	-2.18915750008909 
780	-1.75588800976656 
781	-2.17562382271294 
782	-1.5386420173782 
783	-0.779526470505741 
784	-3.19072444357298 
785	-2.43543588591996 
786	-0.892459249266164 
787	-2.23980005255512 
788	-2.03802490421337 
789	-1.96726945972862 
790	-2.62491643693032 
791	-1.22555115791921 
792	-0.897734719684015 
793	-1.64464525008759 
794	-1.59112699216142 
795	-1.69094955593102 
796	-1.89621927971188 
797	-1.87725076499885 
798	-0.597162215506066 
799	-1.31858815958424 
800	-3.89075486513415 
801	-2.34177325787679 
802	-1.37363544544353 
803	-1.47969406586314 
804	-1.40004996949741 
805	-0.680605587745669 
806	-0.899063627604032 
807	-2.67539189354069 
808	-2.64388780807511 
809	-1.48656508417268 
810	-0.78021151905336 
811	-3.26857723809444 
812	-3.78336016048034 
813	-3.14049202976668 
814	-3.68343621597096 
815	-3.27988547728039 
816	-1.94631778804895 
817	-0.516828724823478 
818	-1.38995300444258 
819	-2.28262602618117 
820	-2.35040876148255 
821	-1.71221511685 
822	-2.74307673665585 
823	-3.53079342545682 
824	-2.23962240251492 
825	-1.65843443689149 
826	-2.06981059585788 
827	-2.70664084551045 
828	-1.2092613355522 
829	-0.990158834461663 
830	-1.7184538222937 
831	-1.7601634223389 
832	-2.82561975930949 
833	-3.48891667429102 
834	-2.73566136288131 
835	-1.35379974690432 
836	-0.992980170975427 
837	-1.70276591454312 
838	-2.20269449232144 
839	-3.26934925782742 
840	-3.16659292369484 
841	-0.83080598779478 
842	-1.02043488500634 
843	-2.1595745734154 
844	-2.86663781308426 
845	-2.36929648295082 
846	-2.0328488687502 
847	-2.14618430466556 
848	-2.45456626784841 
849	-1.95553098041233 
850	-1.63737651792085 
851	-2.12914518857148 
852	-2.70412083251473 
853	-1.78797716669473 
854	-0.622468155823496 
855	-2.42809892460347 
856	-1.44175810796194 
857	-0.476075666479194 
858	-2.44800383600327 
859	-2.39183114212738 
860	-1.919644808086 
861	-1.84545113797805 
862	-1.74515418142027 
863	-2.12106349269887 
864	-2.38701161812414 
865	-1.90542235311418 
866	-2.5895192506091 
867	-2.82751584010228 
868	-1.98558107248929 
869	-2.10619788868809 
870	-1.07630017572897 
871	 3.62978982373327E-02 
872	-1.17130043968966 
873	-1.78083527229432 
874	-1.91917104400803 
875	-2.08778831089697 
876	-2.43768257832477 
877	-2.58844641346681 
878	-2.34772330896086 
879	-1.70212663383155 
880	-1.60758819243213 
881	-1.36041868942137 
882	-0.515742814105806 
883	-1.3301294361266 
884	-2.60602934155853 
885	-3.10055902151809 
886	-1.51398063618711 
887	-2.53380150658998 
888	-3.69259006997754 
889	-1.65406477995824 
890	-1.72659586771905 
891	-2.58169246825825 
892	-2.67454992476711 
893	-0.410897156236702 
894	-1.41952828652526 
895	-3.67314674682475 
896	-2.83304333926329 
897	-2.70561070156329 
898	-3.10384417500477 
899	-3.28389885381783 
900	-1.91804174455059 
901	-1.74649031766327 
902	-2.15488878727002 
903	-1.16354620083615 
904	-0.779470003400944 
905	-1.67179336514481 
906	-3.07229780506338 
907	-0.91069052030284 
908	-3.40222452040883E-02 
909	-0.989954177365244 
910	-1.8558420959348 
911	-3.12262803444001 
912	-3.21882969066355 
913	-1.48125702725906 
914	-8.02348540739041E-02 
915	-0.455006461565178 
916	-2.02908910751216 
917	-2.75801966423686 
918	-2.40264539437702 
919	-1.4376719133114 
920	-0.686008801711548 
921	-1.52580852510142 
922	-2.27807000439293 
923	-2.23707377451393 
924	-1.52699584001515 
925	-2.15370330982323 
926	-2.26866382870281 
927	-0.644035273061618 
928	-0.141313521805197 
929	-0.237195194879005 
930	-0.831213474094026 
931	-1.97632478669583 
932	-1.25709334432715 
933	-0.774190961062909 
934	-2.12867460080031 
935	-3.00937373155518 
936	-2.00589772254592 
937	-0.749652780852805 
938	-2.7567306412894 
939	-3.2630505380296 
940	-2.07559094530107 
941	-0.608690108924478 
942	-2.56607879458626 
943	-3.08600541010547 
944	-2.39106033818212 
945	-3.65601038713661 
946	-2.83269707269473 
947	-1.87088559858053 
948	-2.15459065387034 
949	-1.10893203420872 
950	-1.70012235715987 
951	-3.0238121096609 
952	-2.39959303490199 
953	-2.19890550818058 
954	-2.48480075684026 
955	-2.88519716322902 
956	-2.69409767019309 
957	-2.82131857450882 
958	-2.81295120736227 
959	-1.86019995557348 
960	-1.13822707533478 
961	-0.797785982185349 
962	-1.10413051540844 
963	-2.8403799301931 
964	-3.14252452679687 
965	-2.0715062953924 
966	 7.75613592244378E-02 
967	 1.42062346483174 
968	 1.50422700197573 
969	 1.78794748583768 
970	 3.86431814291481 
971	 3.65371607682891 
972	 1.86990695969689 
973	 0.026737252739307 
974	-3.39118594723851 
975	-4.87756084607957 
976	-6.94795663652635 
977	-7.66373879443921 
978	-1.47665326415708 
979	 0.336935716315943 
980	-1.84196740314534 
981	 1.14254631328105 
982	-0.129005950178541 
983	-2.47886659024419 
984	 1.29451038655392 
985	 3.13583134464587 
986	 2.43630671981633 
987	-0.448548539793911 
988	-2.05626334812445 
989	-6.96378724414917 
990	-8.23615628012283 
991	-4.18004084756313 
992	-5.33765660963039 
993	-8.81172905888762 
994	-10.9900596874673 
995	-12.9543402123893 
996	-15.1729355695038 
997	-10.2352225476496 
998	-3.22065207305393 
999	-0.876483804088909 
1000	 0.476935017786143 
1001	 0.149772758219345 
1002	-2.43111149510654 
1003	-3.3406838181738 
1004	-3.40425540194327 
1005	-3.61262708467713 
1006	-3.16184246672704 
1007	-4.05290217780331 
1008	-5.85926125033349 
1009	-6.67149648758677 
1010	-7.07568808809748 
1011	-5.08357923981104 
1012	-2.6482846971608 
1013	-1.52963676733825 
1014	-1.88941790745199 
1015	-4.80561236029162 
1016	-7.17536218628236 
1017	-9.4564124887565 
1018	-10.4076434574697 
1019	-8.74212997420249 
1020	-8.21806571140106 
1021	-9.22085344478307 
1022	-10.0798360290384 
1023	-10.4011363683472 
1024	-12.2602111817727 
1025	-11.9151263966541 
1026	-6.89298461178512 
1027	-4.94179395589955 
1028	-5.90014892859035 
1029	-7.46902378594663 
1030	-10.945862475702 
1031	-11.6404340558181 
1032	-8.24374177803378 
1033	-3.66267210330045 
1034	-0.665904547971547 
1035	 1.97588374258643 
1036	 1.82171612071502 
1037	 0.989848030362704 
1038	 1.48445888919769 
1039	-1.15435109734406 
1040	-2.29573506905397 
1041	-3.47636615570348 
1042	-2.96807070372414 
1043	-1.87783932266493 
1044	 1.44448965444117 
1045	 3.06332887785182 
1046	 3.90966163353945 
1047	 3.36394940600348 
1048	 0.355138557079988 
1049	 0.347210525670647 
1050	-0.617008590309155 
1051	-4.09616585487506 
1052	-1.84440314139211 
1053	 0.656202864741445 
1054	 1.6027384290104 
1055	 3.07915058209341 
1056	 1.65580124495569 
1057	 0.776087242443786 
1058	-2.07864955744907 
1059	-2.89450804865577 
1060	-1.96326510732489 
1061	-3.05674928919137 
1062	-4.4577671022806 
1063	-8.11231657447048 
1064	-9.60055812878134 
1065	-8.21943918931468 
1066	-5.78470163468167 
1067	-1.51930218937326 
1068	-1.22278670100223 
1069	-9.76475935105053E-02 
1070	 1.53200978589484 
1071	 0.24843188815867 
1072	 0.939258059228034 
1073	 2.65503779778955 
1074	 3.50172637448897 
1075	 3.83484131261847 
1076	 4.7292304013305 
1077	 5.93373405935065 
1078	 5.6380115926477 
1079	 6.35464481505192 
1080	 4.38597933480104 
1081	-2.05304646669326 
1082	-4.31337594136742 
1083	-5.5835840346845 
1084	-8.1825929491371 
1085	-7.55927549576082 
1086	-3.99744543205564 
1087	-5.33181851165794 
1088	-6.98773456320226 
1089	-5.84923984492726 
1090	-8.17464539466877 
1091	-7.38271040917472 
1092	-3.55413955827252 
1093	-1.89899622946718 
1094	 1.09516745056627 
1095	 1.10927263446251 
1096	-2.17916968425165 
1097	-2.98240528680517 
1098	-4.7101916289604 
1099	-6.00061974390855 
1100	-5.26325756556668 
1101	-5.4017561436227 
1102	-7.41522984613902 
1103	-7.49970315637159 
1104	-5.80602859518392 
1105	-4.06722027360678 
1106	-4.97909533477519 
1107	-7.38686582929773 
1108	-10.0307923162067 
1109	-11.3107374337302 
1110	-11.4423661568682 
1111	-8.23061459470302 
1112	-7.86104588065964 
1113	-10.2043014944599 
1114	-8.02182841583926 
1115	-2.51719277297071 
1116	-0.739496189769135 
1117	 3.43309705515799 
1118	 3.98715394973524 
1119	-1.69513702337809 
1120	-3.71913665944446 
1121	-5.08092129838639 
1122	-5.99132560955262 
1123	-5.66260915869576 
1124	-5.61358325476143 
1125	-4.19117462425769 
1126	-5.05425928686228 
1127	-4.98181651928303 
1128	-4.97159298501442 
1129	-4.71159936995959 
1130	-4.31867065194668 
1131	-4.04144549000951 
1132	-3.7299672068607 
1133	-3.44270986750452 
1134	-2.59653268012582 
1135	-3.4546871518192 
1136	-6.34540595523923 
1137	-6.33801527549157 
1138	-6.79289136682002 
1139	-5.50615947405929 
1140	 0.287885777323506 
1141	 2.68828794140257 
1142	 4.56999536200918 
1143	 5.10476593409036 
1144	 1.5766085249559 
1145	 1.39450100965928 
1146	 3.75329543096591 
1147	 3.88919249591274 
1148	 3.8179855815302 
1149	 5.59513599271796 
1150	 4.26385758038447 
1151	-1.21044027425379 
1152	-2.44894010182539 
1153	-2.04799490385922 
1154	-2.69084843308924 
1155	-3.11556937615882 
1156	-2.47832008328932 
1157	-0.455746464761786 
1158	-1.40330837597064 
1159	-3.2326800737002 
1160	-3.70152169775596 
1161	-6.83295442657848 
1162	-7.84237428561395 
1163	-6.31526839781008 
1164	-4.60353616931513 
1165	-1.27328513262928 
1166	-0.036110295673836 
1167	 1.56100769338784 
1168	 2.22087571943006 
1169	 0.418365958743724 
1170	-0.572262827095376 
1171	-1.60198799824971 
1172	-1.8778010759602 
1173	-2.90037434318118 
1174	-4.78980219799576 
1175	-6.00313307729984 
1176	-8.39755697099733 
1177	-7.52327065001054 
1178	-3.57134915119291 
1179	-2.57716408333491 
1180	-0.950016244813375 
1181	 0.599000896517779 
1182	-0.048396228841958 
1183	-4.04997912930279E-02 
1184	 2.23076142462721 
1185	 2.46295544902811 
1186	 0.469623892033208 
1187	-0.433214469592329 
1188	-1.82886679500164 
1189	-2.55633821093883 
1190	-1.96904679850315 
1191	-2.74363393943302 
1192	-3.58290517319276 
1193	-4.47572578956872 
1194	-7.63979223767806 
1195	-10.1546581207524 
1196	-10.1692081420315 
1197	-8.1122667373742 
1198	-7.36727627748593 
1199	-4.94372811278638 
1200	-4.05264833664085 
1201	-5.59069449006138 
1202	-5.49767007496191 
1203	-3.99257514211836 
1204	-3.54735414597211 
1205	-3.46126966853468 
1206	-2.46712674089603 
1207	-1.16100881464732 
1208	-0.886547088530967 
1209	-0.758865996199517 
1210	-0.504377414643685 
1211	-1.49779112643049 
1212	-0.65763558829798 
1213	-1.02656023167752 
1214	-2.54371709086989 
1215	-2.5218082663776 
1216	-4.37997657504528 
1217	-5.82990665150708 
1218	-5.46648248131003 
1219	-6.85623562957127 
1220	-6.23294119711952 
1221	-5.60433375150423 
1222	-3.01836880910051 
1223	-2.46025021202816 
1224	-3.17283392519845 
1225	-3.35939261234067 
1226	-4.4415974772909 
1227	-3.62937175406688 
1228	-0.839152151406699 
1229	 0.415252908184397 
1230	 2.28075295445676 
1231	 2.79450107971456 
1232	 1.01864557501148 
1233	 0.29729531155873 
1234	-8.66595664571772E-02 
1235	-0.530018923340816 
1236	-1.10759099467368 
1237	-0.510200174570671 
1238	-1.63421367840056 
1239	-2.69431718015147 
1240	-2.49781720206584 
1241	-0.800636978559177 
1242	 1.20037592843288 
1243	 1.24919300613401 
1244	 1.75460381894025 
1245	 0.342553482421817 
1246	-1.83404790687145 
1247	-1.96480969372863 
1248	-2.45650863795026 
1249	-2.38863727626445 
1250	-1.94877636300411 
1251	 0.219324178266508 
1252	 1.17111183079613 
1253	 0.964822063814476 
1254	 1.58793249874428 
1255	 2.79780659454646 
1256	 2.34566328505786 
1257	 2.26728541696641 
1258	 1.48062847264661 
1259	-1.28899915654799 
1260	-2.12312403454141 
1261	-1.87360865903283 
1262	-3.69962541586777 
1263	-2.77748080708536 
1264	-2.49231591984964 
1265	-1.7118262526259 
1266	-1.33581955538009 
1267	-1.08080070211604 
1268	 0.528010686261115 
1269	 8.37621394514044E-02 
1270	-1.76219053549175E-02 
1271	 0.318882936351404 
1272	-0.269884169516364 
1273	-0.753916039340526 
1274	 1.22901308407678 
1275	 1.69879884910899 
1276	-0.258663315880269 
1277	-0.574435048852856 
1278	-3.96958654352155 
1279	-4.83438399061287 
1280	-3.57831283092769 
1281	-3.22187504621297 
1282	-1.16196428221222 
1283	-0.868021828825231 
1284	-2.31794771991042 
1285	-3.20601765430956 
1286	-6.08911529696082 
1287	-6.50543127827437 
1288	-4.56731430096338 
1289	-4.40903380807623 
1290	-5.75810361006853 
1291	-7.3842281588116 
1292	-9.53192121382926 
1293	-8.06856680075643 
1294	-3.42080903987669 
1295	-2.06965005304646 
1296	-1.04476505692264 
1297	-0.903329847137692 
1298	-5.24924462949129 
1299	-5.42844242257042 
1300	-2.88348822810413 
1301	-2.95771496495104 
1302	 0.905032936482273 
1303	 4.72836164854364 
1304	 2.76468376043922 
1305	 3.57359744274255 
1306	 5.429395001937 
1307	 6.30807868968294 
1308	 8.73169815508169 
1309	 8.91226151693296 
1310	 7.92601011886416 
1311	 6.13222326723967 
1312	 4.50363642139873 
1313	 3.3285503244811 
1314	 1.53833514790052 
1315	-0.441316699159898 
1316	-1.8949312226013 
1317	-4.4797149997238 
1318	-5.69975811479269 
1319	-5.40000242031449 
1320	-7.51401693332502 
1321	-8.37943503608728 
1322	-5.38358027700697 
1323	-4.65946728445452 
1324	-2.65034338425338 
1325	-0.585958705011356 
1326	 0.430870076618954 
1327	 0.829100793359504 
1328	-3.18062546939865 
1329	-6.45916004394061 
1330	-8.20450858305365 
1331	-9.71056847119654 
1332	-6.65007698917724 
1333	-3.39688916862065 
1334	-1.8339276042816 
1335	 0.830875522569206 
1336	 0.668979558654694 
1337	-2.02784173590812 
1338	-3.17892568107736 
1339	-3.48870647840777 
1340	-3.27026536538912 
1341	-3.29139018974137 
1342	-2.89866931614514 
1343	-2.64370858322406 
1344	-6.51942224930928 
1345	-5.91717699125453 
1346	-4.24521065632857 
1347	-4.4463675121325 
1348	-4.60931106355088 
1349	-3.99670259809937 
1350	-4.89188740307671 
1351	-3.51097457862083 
1352	-0.271462647233438 
1353	 1.05002122266167 
1354	 4.31718011918981 
1355	 1.3828686663108 
1356	-3.86419684880132 
1357	-7.04988223781007 
1358	-10.9789959668156 
1359	-11.2563343669219 
1360	-9.33684892819405 
1361	-7.47319804567641 
1362	-6.31068174721439 
1363	-6.82326043648325 
1364	-7.10979430826577 
1365	-8.53856678396885 
1366	-11.606074437733 
1367	-12.8806680552666 
1368	-10.7448903017475 
1369	-7.74018122371528 
1370	-3.27301616292236 
1371	 0.141587333634576 
1372	 0.369317580167552 
1373	 0.766794679642295 
1374	 6.03642538606885E-02 
1375	-1.90420983449491 
1376	-3.40973615323072 
1377	-8.30906827118034 
1378	-11.6168697373369 
1379	-7.95342822487909 
1380	-5.38242934007668 
1381	-2.44039118677553 
1382	 1.34201077729367 
1383	 0.798135993033484 
1384	-0.740057857803154 
1385	-0.496305694567977 
1386	-9.68894881824261E-03 
1387	 0.29712392264995 
1388	 1.24642440223209 
1389	 2.9984183151853 
1390	 3.849635091887 
1391	 4.88475906951632 
1392	 3.37006770155989 
1393	-0.424912414724807 
1394	-2.54532487885285 
1395	-5.88572304803107 
1396	-7.9227198409792 
1397	-7.09157027203315 
1398	-6.8780603131442 
1399	-7.29690515354067 
1400	-5.102737436034 
1401	-4.61806265293298 
1402	-5.78424673496875 
1403	-6.45841108810957 
1404	-8.83460000589666 
1405	-9.90214198357855 
1406	-9.04759539082904 
1407	-7.85926107873735 
1408	-6.03368583807282 
1409	-4.36429026925366 
1410	-2.09962655314561 
1411	-2.06127604200423 
1412	-2.74877695240508 
1413	-3.48114411384682 
1414	-5.90132976048131 
1415	-5.94397241316107 
1416	-6.86525496041618 
1417	-8.46301114925201 
1418	-5.9675762602785 
1419	-3.07008196853206 
1420	-0.790774409437171 
1421	 2.16908497580006 
1422	 2.36425527803134 
1423	 0.607904797363668 
1424	-1.22981801546765 
1425	-3.14900991490734 
1426	-4.12199481238704 
1427	-5.50954244393811 
1428	-7.10456723993602 
1429	-7.19948873753086 
1430	-7.9398020146172 
1431	-8.00753209110801 
1432	-6.19108099189524 
1433	-5.20535781314273 
1434	-2.30397812420018 
1435	 2.24503326587605 
1436	 3.5704901143315 
1437	 2.47545260314457 
1438	 1.4088688981566 
1439	-0.601460667894198 
1440	 6.37444196686541E-02 
1441	 0.432495806986065 
1442	-4.09649645521861 
1443	-5.61932702063879 
1444	-7.54854140514155 
1445	-9.05686196213971 
1446	-6.24516914459432 
1447	-4.7503125742366 
1448	-5.34146589286023 
1449	-5.05267622283061 
1450	-5.11145844506481 
1451	-5.49197500100197 
1452	-5.53451706230583 
1453	-5.96768800677267 
1454	-7.0216124425526 
1455	-5.57416669601108 
1456	-3.90760647387977 
1457	-2.73970197620152 
1458	-2.54921993638607 
1459	-2.33605422153811 
1460	-3.8963887761059 
1461	-6.96342219036231 
1462	-5.41977462724334 
1463	-3.93224914298799 
1464	-1.65457763791073 
1465	 2.22895870034061 
1466	 2.15663268055815 
1467	 1.82800317749573 
1468	 0.386801054897042 
1469	-1.25722315873717 
1470	-1.88502400832795 
1471	-2.34864836809477 
1472	-0.544680622094171 
1473	 2.32443137137603 
1474	 3.55108913712979 
1475	 4.32954158767906 
1476	 5.53183224500818 
1477	 5.7018820785477 
1478	 4.32537297200018 
1479	 1.24519405190038 
1480	-3.06664823621202 
1481	-8.27874310045713 
1482	-10.3018251048651 
1483	-8.70150363459767 
1484	-5.21863040451842 
1485	-3.26078217772859 
1486	-1.39233530480543 
1487	 1.83912741441818 
1488	-0.228661819333827 
1489	-0.128180447172797 
1490	 1.33136055681855 
1491	 1.09048625596133 
1492	 4.52814014297818 
1493	 5.58670501674446 
1494	 4.4824592074919 
1495	 3.57951394581611 
1496	 2.89982988952273 
1497	 1.66071232067823 
1498	-0.534813130131472 
1499	-1.67134401529011 
1500	-3.32226607223434 
1501	-4.20351148228224 
1502	-3.49599296129192 
1503	-1.65369520585659 
1504	-2.04387072773154 
1505	-2.8915005382505 
1506	 0.769218884893145 
1507	 0.739126842983428 
1508	-3.70202993028193 
1509	-5.20863940277814 
1510	-6.68748741624416 
1511	-7.38066268670595 
1512	-4.37655760318667 
1513	-1.89108893163077 
1514	-4.36670775435238 
1515	-8.59164136802056 
1516	-8.27841983688251 
1517	-7.42066514368846 
1518	-7.03417274151587 
1519	-5.41619572900905 
1520	-5.32231232643642 
1521	-4.93201795708962 
1522	 0.102939845639741 
1523	 2.95836370616262 
1524	-9.41332189799527E-02 
1525	-1.92858959508917 
1526	-5.79227854216906 
1527	-8.43357496973109 
1528	-5.71810133034082 
1529	-5.65393115376389 
1530	-8.22823654410971 
1531	-8.67557969870941 
1532	-9.09047866729059 
1533	-9.44996556089839 
1534	-8.1010125844497 
1535	-7.31005561582932 
1536	-7.27422695536378 
1537	-7.60157081920134 
1538	-6.83789373095385 
1539	-6.19014031292516 
1540	-6.52006227968593 
1541	-6.17681996083787 
1542	-5.06207660863543 
1543	-3.49746917360248 
1544	-2.7177824052907 
1545	-1.08431704457899 
1546	 6.25689437763121E-02 
1547	-0.211341212938889 
1548	-0.56020650392302 
1549	-1.89607281613113 
1550	-3.59946210733073 
1551	-5.48329702227254 
1552	-7.74229313058876 
1553	-8.64273701154603 
1554	-6.99129521771714 
1555	-6.86066918930883 
1556	-5.7710492314681 
1557	-4.75443947688888 
1558	-7.72509813524218 
1559	-8.17311661251869 
1560	-7.87308781076312 
1561	-6.73629978353762 
1562	-3.67760303812538 
1563	-3.51428555800254 
1564	-3.49359112364272 
1565	-1.06531334130347 
1566	-0.329474832213648 
1567	 0.378383425509405 
1568	 3.37358657487715 
1569	 2.41582932814283 
1570	 1.24107186761148 
1571	 1.19407706586927 
1572	-0.916483658983317 
1573	-1.66021019161479 
1574	-0.937634482116995 
1575	 2.11958493453599 
1576	 2.82693998672171 
1577	 1.01141510460869 
1578	-1.66312986401029 
1579	-6.2555405823298 
1580	-6.12087056716327 
1581	-4.8099055084029 
1582	-5.33120226161561 
1583	-3.79935758445519 
1584	-3.84892631670031 
1585	-4.08173640786876 
1586	-1.0188111195598 
1587	 0.320185066283471 
1588	 0.501632968904302 
1589	 2.30085349880586 
1590	 3.08367371065987 
1591	 2.59485744744221 
1592	 1.73796820081387 
1593	 0.222082103762056 
1594	-0.437622332805527 
1595	-0.18973406305767 
1596	-6.87953121067974E-02 
1597	 1.18199065548568 
1598	 6.87867447949041E-02 
1599	-1.07965526182029 
1600	-0.708974933416559 
1601	-3.81802573914201 
1602	-4.20805043989861 
1603	-3.39111437975497 
1604	-6.32378463643101 
1605	-5.98268903244653 
1606	-4.55299679831493 
1607	-5.01736757948155 
1608	-2.67636001003728 
1609	-2.58776161780879 
1610	-4.34000080834681 
1611	-5.0258724091517 
1612	-7.87366376741146 
1613	-7.97589787364876 
1614	-6.60121779253811 
1615	-5.50871785048713 
1616	-0.768021872461582 
1617	 3.38424041754857 
1618	 3.41527734460256 
1619	 2.667451450913 
1620	-0.537778244092903 
1621	-2.41013511305594 
1622	 0.606863337593317 
1623	 1.11778104564789 
1624	 1.06786096291821 
1625	 8.99272972271568E-02 
1626	-1.7787920788839 
1627	 0.222147706954699 
1628	 0.384823649340767 
1629	-0.954907404137584 
1630	-0.670061459048374 
1631	-3.70817256770028 
1632	-5.0343367455991 
1633	-1.3076914697418 
1634	-1.79164729595894 
1635	-1.90733882574613 
1636	-1.05005103100052 
1637	-1.06540283553422 
1638	-2.78964387761556 
1639	-2.42479302073682 
1640	-0.557302015008841 
1641	-8.93417213997021E-02 
1642	 1.66174837079526 
1643	 2.07067611276712 
1644	-0.579269640720027 
1645	-0.879706124571493 
1646	 0.435380224091245 
1647	 0.705088591806007 
1648	 2.27098573780911 
1649	 1.75305944191372 
1650	-2.59750839537487 
1651	-2.71918100690042 
1652	-0.68296999233716 
1653	 0.109280732678669 
1654	 3.19078896706524 
1655	 3.70106093336749 
1656	 0.659218528776127 
1657	 0.812514274583297 
1658	 3.49747246812055 
1659	 3.91607923530577 
1660	 4.20704290019709 
1661	 3.86383736610999 
1662	 0.335286169774914 
1663	 0.20145371225022 
1664	 3.37290062663081 
1665	 2.83675559904262 
1666	 1.22951457215685 
1667	 1.25906040420829 
1668	 0.148981364299809 
1669	-0.381544984971724 
1670	 1.27508996927413 
1671	 0.809952031286765 
1672	-2.67619994697075 
1673	-1.97364582775193 
1674	 1.68686045374236 
1675	 2.13414207869004 
1676	 3.52588677975548 
1677	 2.16691134139226 
1678	-2.19659183111455 
1679	-6.21674297513811 
1680	-11.641354623 
1681	-14.4550945484595 
1682	-17.9787445758385 
1683	-17.2505090751172 
1684	-13.8627727540902 
1685	-10.3720444968638 
1686	-7.39431674931485 
1687	-4.53648851450539 
1688	-2.68251466141734 
1689	-1.79150265536542 
1690	-1.13823113629108 
1691	-2.04124441994647 
1692	-1.73921361550354 
1693	-0.139400686890751 
1694	-6.34991780010465E-02 
1695	-0.926828611624181 
1696	-0.679021265785713 
1697	 0.312282801414722 
1698	-0.667394024119808 
1699	-3.167576823125 
1700	-3.25141608858752 
1701	-3.98239043239488 
1702	-3.98415218194555 
1703	-0.685045393978449 
1704	 0.907607946655357 
1705	 2.07474870353623 
1706	 1.230342884781 
1707	-1.92249578851501 
1708	-2.2053435963922 
1709	-2.44619762319178 
1710	-3.43401987390768 
1711	-2.3840855591389 
1712	-2.50325799036833 
1713	-5.21150250437799 
1714	-6.01615331632858 
1715	-5.12381823536164 
1716	-4.8591663471186 
1717	-5.20913050991494 
1718	-4.8407818877538 
1719	-3.77202318061323 
1720	-2.58541448969535 
1721	-1.07259665458098 
1722	-1.92103366260331E-02 
1723	 1.89666095536025 
1724	 0.946882990351486 
1725	-1.75023419238883 
1726	-5.92087509388439 
1727	-7.59243422513712 
1728	-7.94289133491477 
1729	-5.47484015529879 
1730	 0.922893944753843 
1731	 3.9415501196582 
1732	 5.64426842826648 
1733	 4.9441894811231 
1734	-2.50920296431733 
1735	-5.40789322851806 
1736	-6.89987425363347 
1737	-8.32399015969247 
1738	-7.1189920266164 
1739	-6.86803527523084 
1740	-8.39236056429857 
1741	-7.49996195580403 
1742	-3.5532500786893 
1743	-2.62362074297874 
1744	-2.7240705745077 
1745	-2.00124660327064 
1746	-2.84952254696675 
1747	-2.68467782010954 
1748	-4.89321434663426E-03 
1749	 0.316451479659751 
1750	-1.49012393549998 
1751	-2.47185590660615 
1752	-4.07192810425392 
1753	-4.69261967741399 
1754	-3.86755649149283 
1755	-5.7247747662526 
1756	-5.28802073897681 
1757	-9.34861960627299 
1758	-22.0817276964885 
1759	-22.3965802658403 
1760	-14.7547864255655 
1761	-7.43616838203143 
1762	 8.16686534601534 
1763	 19.3728225576663 
1764	 16.8261012598593 
1765	 0.176527050126624 
1766	-4.34253717336858 
1767	-19.949303239978 
1768	-27.7830595073356 
1769	-31.1771808894075 
1770	-22.4492461476664 
1771	-20.9120343279882 
1772	-4.45846131807891 
1773	 6.93425716197442 
1774	 33.2591858355771 
1775	 30.5693177743735 
1776	 3.63432624710797 
1777	-2.71645705587151 
1778	-14.3347897725629 
1779	-21.0618807775355 
1780	-7.41986199555709 
1781	 6.81111001353344 
1782	 3.54105894277604 
1783	 0.985584363183813 
1784	 4.18701649923206 
1785	 6.62767380712844 
1786	 10.0471147000091 
1787	 19.3140511866117 
1788	 23.1872441863629 
1789	 18.7012598079937 
1790	-5.6480754989987 
1791	-22.2853022964712 
1792	-19.4896165888393 
1793	-20.2059799863578 
1794	-19.3546597310636 
1795	-5.56526036247181 
1796	 6.86781573804117 
1797	 3.34250643483072 
1798	-3.84452537532958 
1799	 1.50720186384437 
1800	 7.20560614494817 
1801	 12.2435950859309 
1802	 11.80537583615 
1803	 8.41042959108188 
1804	-2.11128915211586 
1805	-6.67502457202891 
1806	-16.1785557743863 
1807	-15.9492226875861 
1808	-14.5353622170575 
1809	-16.0690275311733 
1810	-3.53419204254251 
1811	 6.45930426987097 
1812	 6.59083583556798 
1813	 1.14865151867237 
1814	 3.02926857269622 
1815	-6.72720913191928 
1816	-5.18035850955528 
1817	 15.2719858319591 
1818	 29.2656478110295 
1819	 28.1055500078578 
1820	 15.4414092810049 
1821	 8.47619380738863 
1822	-10.9018969622039 
1823	-17.8178994034358 
1824	-21.2696033337874 
1825	-16.7049277900719 
1826	-6.2418073399908 
1827	 5.94977348285313 
1828	 38.7279161124583 
1829	 56.7898769718801 
1830	 58.4125251385319 
1831	 45.3140894129052 
1832	 41.0820419991872 
1833	 19.457788725664 
1834	 11.6364488727487 
1835	 20.4035991185119 
1836	 18.2647370627389 
1837	 10.8322864911442 
1838	 4.40196084097274 
1839	-5.45987048143884 
1840	-16.5307388989294 
1841	-17.0422216066327 
1842	-9.72644694723717 
1843	-8.62820178066695 
1844	 4.60502465318494 
1845	 2.55779721609053 
1846	-22.2976802808789 
1847	-27.5755779355878 
1848	-29.2564727054115 
1849	-30.9524781503143 
1850	-13.1102147826183 
1851	 6.26782876635667 
1852	 15.430407043087 
1853	 24.1642566736066 
1854	 26.1796043078785 
1855	 14.4317890178406 
1856	 12.3377242858201 
1857	 11.0393667570966 
1858	 11.9158966602028 
1859	 7.99630271305054 
1860	 11.2362352055278 
1861	 14.6545697158226 
1862	-1.07089440489197 
1863	-5.9339505238606 
1864	-6.52652965660014 
1865	-9.24082913315207 
1866	-11.942901289769 
1867	-9.17020669445302 
1868	-3.3535495834809 
1869	-2.24692284925205 
1870	 9.70077018335555 
1871	 20.3168743489378 
1872	 22.843863061432 
1873	 29.32225739256 
1874	 32.4356835442705 
1875	 22.3424011114901 
1876	 18.7420377614531 
1877	 17.3008523867188 
1878	 17.4609944472328 
1879	 13.1347871483516 
1880	 21.6454220483343 
1881	 31.1154495567912 
1882	 29.5397001147012 
1883	 20.1990267065371 
1884	 12.0649216779245 
1885	 2.6360314017548 
1886	-3.34910547482494 
1887	-5.27308950181389 
1888	 0.917207381598852 
1889	 4.31924643798562 
1890	 5.08860342370602 
1891	 2.88393103033951 
1892	 3.09454300418228 
1893	 3.35594068068886 
1894	-3.74855986328757 
1895	-12.0745107578338 
1896	-16.1309071106559 
1897	-18.8715625985921 
1898	-22.3715951383821 
1899	-24.3059417938698 
1900	-21.9874308638553 
1901	-21.6475558564468 
1902	-24.9520839726416 
1903	-13.1924641476946 
1904	-1.45248091727265 
1905	 0.439918883631705 
1906	 5.23328691367778 
1907	 2.24655162722821 
1908	-3.37729467956491 
1909	-15.1423860230062 
1910	-19.6145882599539 
1911	-26.585110258138 
1912	-33.5182541398509 
1913	-40.5003266971667 
1914	-39.705806580655 
1915	-40.4199853672835 
1916	-29.0161008012624 
1917	-13.414367607731 
1918	-4.42920607349746 
1919	 2.60861992243893 
1920	 6.92929134519804 
1921	 6.69314672012956 
1922	 1.38590925949422 
1923	-2.5417796451703 
1924	-15.5443790102843 
1925	-18.5700316006386 
1926	-17.838660100443 
1927	-11.278960061608 
1928	 1.09317824838841 
1929	 10.3795689560827 
1930	 11.4604094180778 
1931	 5.43399778665867 
1932	 4.88415379415251 
1933	-1.29466688068993 
1934	-2.11387536139823 
1935	 5.38210586207803 
1936	 7.56781267405575 
1937	 8.92377665898204 
1938	 6.49791234441316 
1939	 1.70596657184294 
1940	-5.82038547748118 
1941	-11.4360989008222 
1942	-20.3722993353654 
1943	-23.6819554335218 
1944	-24.5207797459476 
1945	-23.7870226235849 
1946	-22.7107911326196 
1947	-16.8792283806935 
1948	-3.02601242082535 
1949	 4.47851510864738 
1950	 14.6896597600024 
1951	 20.7410748699953 
1952	 21.7571077706662 
1953	 19.6353399032282 
1954	 21.0537997765353 
1955	 23.6756192681584 
1956	 23.8526148382481 
1957	 21.5408480720696 
1958	 23.9968861682676 
1959	 25.2427577341519 
1960	 30.4614055141345 
1961	 48.9032459915649 
1962	 53.1107005431653 
1963	 53.4527635276799 
1964	 49.747518977404 
1965	 30.2198139061895 
1966	 17.0960144253303 
1967	 13.0737944519815 
1968	 12.1418610824929 
1969	 15.136146759031 
1970	 33.2170378234807 
1971	 36.9755893504501 
1972	 37.4973893507963 
1973	 35.8195071961793 
1974	 25.6790430022066 
1975	 20.697523244212 
1976	 16.7267129882094 
1977	 11.8258147540978 
1978	 6.48858083351934 
1979	 4.33662364952461 
1980	 4.09307976031015E-03 
1981	-8.40263336362766 
1982	-7.39715514563802 
1983	-0.547974587627225 
1984	 0.521466978649486 
1985	 5.60598220135339 
1986	 7.51220221883801 
1987	 1.93725536251573 
1988	 2.87999983591718 
1989	 13.3348538482862 
1990	 12.6287995573014 
1991	 7.1223019059263 
1992	 1.41287539856539 
1993	-10.7656603562346 
1994	-21.4613432699585 
1995	-24.4281532891268 
1996	-21.9004476245609 
1997	-17.5878668957101 
1998	-6.5627812669599 
1999	 1.91042864969801 
2000	 17.3646896627398 
2001	 21.6458493962272 
2002	 18.2735179232636 
2003	 18.0050161088201 
2004	 14.2032736533507 
2005	 6.8415810364895 
2006	 9.54953434983829 
2007	 10.4634758315387 
2008	 12.9431828308055 
2009	 20.0242497315423 
2010	 19.9876712372361 
2011	 21.6788288864797 
2012	 17.3922677107043 
2013	-1.00893296180739 
2014	-6.72182052749837 
2015	-11.341191142435 
2016	-12.0353959940064 
2017	 2.19728557021679 
2018	 5.95158323144032 
2019	 7.13740065372542 
2020	 3.78439727937505 
2021	 1.87134735563226 
2022	-2.00288063923866 
2023	-3.2993965367581 
2024	-1.18852268558873 
2025	-8.47756185448106 
2026	-30.6878593416834 
2027	-33.8648502648801 
2028	-34.1880140720612 
2029	-30.5741670853139 
2030	-9.06470415247277 
2031	 1.12400969537382 
2032	 9.6550191774025 
2033	 9.11028188834046 
2034	 14.3650192506738 
2035	 12.4343357460586 
2036	 8.15586084741903 
2037	 14.0073953950537 
2038	 13.5801824824829 
2039	 15.2296145984019 
2040	 16.9317168242693 
2041	 19.6434821051208 
2042	 16.0394354445553 
2043	 3.45625555131061 
2044	-1.43517005578487 
2045	-7.9804875256201 
2046	-11.9240325832993 
2047	-6.31530177300283 
2048	-5.75937385010661 
2049	-8.24227964681166 
2050	-12.163196947044 
2051	-10.4685536085627 
2052	-2.9670515719282 
2053	 6.88043833619781 
2054	 16.2547228582132 
2055	 22.9596209627272 
2056	 28.8980927303756 
2057	 27.7033924954616 
2058	 28.6248288975976 
2059	 29.967139503012 
2060	 29.7463830400736 
2061	 27.659752272576 
2062	 29.6703694243417 
2063	 25.7951529023493 
2064	 19.1033577318011 
2065	 0.735974163987554 
2066	-6.59345983263888 
2067	-14.2357469542439 
2068	-19.262600911404 
2069	-4.717493912857 
2070	 11.367269366002 
2071	 17.9490905594786 
2072	 28.4840120249415 
2073	 38.3218476893807 
2074	 40.2004647716185 
2075	 47.2536097485699 
2076	 47.0601276681355 
2077	 37.5915107302601 
2078	 34.5276210615171 
2079	 30.4568349169324 
2080	 25.7850001350891 
2081	 23.5214646622176 
2082	 24.8466733142165 
2083	 14.1267909116997 
2084	 12.0853266551734 
2085	 7.40501755214396 
2086	 6.66054967343984E-02 
2087	 5.18587044533255 
2088	 1.41465070931162 
2089	 1.28865560442132 
2090	 5.5754654037014 
2091	 5.85196765814525 
2092	 11.1771153089087 
2093	 22.0083217489301 
2094	 35.394952779008 
2095	 38.0259173531542 
2096	 32.2525407624998 
2097	 26.4000806751011 
2098	 15.2131583424762 
2099	 1.27343997350481 
2100	-12.4954546382962 
2101	-8.92143526227455 
2102	-5.79231515881183 
2103	-8.84567307482662 
2104	-3.05590028041265 
2105	 2.78373875325379 
2106	 0.258757622232914 
2107	 1.58495253546295 
2108	 6.77141703260513 
2109	 7.77486797181571 
2110	 16.6775795518077 
2111	 19.6316357454795 
2112	 12.5316972611899 
2113	 14.0014569758464 
2114	 10.059023902197 
2115	-2.0150344481405 
2116	-3.60160121133656 
2117	-6.22534276529509 
2118	-5.40966009352514 
2119	 1.72499201910823 
2120	 12.8129517814032 
2121	 16.5190192339375 
2122	 14.8664947523386 
2123	 10.5406431271593 
2124	-5.09886231050618 
2125	-17.3409664119398 
2126	-12.39733577771 
2127	-10.0588001487195 
2128	-1.22672003267489 
2129	 9.53542192192093 
2130	 20.427160574341 
2131	 33.0529871918429 
2132	 34.0745496271361 
2133	 33.4618269937041 
2134	 24.8983920543324 
2135	 20.38234547175 
2136	 17.7512064648911 
2137	 16.4492387622643 
2138	 15.8782160514937 
2139	 17.7711770699161 
2140	 23.9644480190739 
2141	 13.7731782551701 
2142	 18.7117867654242 
2143	 16.6518578379288 
2144	 4.43898131973085 
2145	 8.4809823236227 
2146	-3.99015574659786 
2147	-13.0480668472334 
2148	-8.52516611820362 
2149	-6.98015367909913 
2150	 0.655167943208079 
2151	 7.6158467872028 
2152	 13.5764680075028 
2153	 7.1859802134779 
2154	-1.6073205850657 
2155	 3.74052350987435 
2156	 4.83754085743999 
2157	 8.95556083942658 
2158	 15.0269060721439 
2159	 30.6081940558355 
2160	 28.2354110120861 
2161	 16.8955834576663 
2162	 8.67363328572498 
2163	-10.4198757415017 
2164	-22.5716290511581 
2165	-12.780765021488 
2166	 4.01606431797455 
2167	 25.2843181680814 
2168	 41.3791956155508 
2169	 41.2559571192386 
2170	 31.841986529986 
2171	 12.7370034725526 
2172	-1.05222121915328 
2173	 3.49440564708682 
2174	 10.5915266824758 
2175	 19.6689102808156 
2176	 35.7973678326919 
2177	 31.5234722614477 
2178	 22.3372810117507 
2179	 20.5270543595183 
2180	 8.24228283788984 
2181	 0.951290662396182 
2182	 0.521901597323681 
2183	 2.45244648960924 
2184	 11.1807809322041 
2185	 13.7518772368203 
2186	 15.7403087334519 
2187	 17.9580928885191 
2188	 14.6779579923978 
2189	 20.1085805006695 
2190	 28.8473912618428 
2191	 38.7135982175813 
2192	 42.3248987042559 
2193	 40.9264442652483 
2194	 42.8876658300274 
2195	 35.8906443194153 
2196	 30.2206576472546 
2197	 20.2818209171645 
2198	-3.46571378707783 
2199	-15.7302630682082 
2200	-20.5189540150343 
2201	-13.949899789002 
2202	 4.52205123264989 
2203	 13.5587063859304 
2204	 19.8095401675681 
2205	 23.9240430910583 
2206	 18.881280504169 
2207	 23.152522531437 
2208	 33.4505892008721 
2209	 33.7560969091842 
2210	 33.5247415491739 
2211	 35.4657663617631 
2212	 29.8083434092436 
2213	 13.0485683224432 
2214	 5.45547842121391 
2215	-2.13830907110185 
2216	-5.64161095025425 
2217	-7.06642642279569 
2218	 1.26204056676959 
2219	 15.877135688507 
2220	 31.8700367102693 
2221	 57.0062664654751 
2222	 68.7581359897622 
2223	 69.158148568387 
2224	 65.2143183885659 
2225	 43.5462552472139 
2226	 21.9537250079193 
2227	 4.84826824797494 
2228	-12.2188465910931 
2229	-13.7644216238597 
2230	-8.58225689580326 
2231	 2.3427679247986 
2232	 18.3043596461603 
2233	 24.4454783891373 
2234	 30.3685802528065 
2235	 25.1021128967811 
2236	 10.532891427631 
2237	 3.42992814482575 
2238	 0.465702276502233 
2239	 1.75552598856192 
2240	 6.26055796366905 
2241	 16.6578031444048 
2242	 15.6571942396518 
2243	 18.918102707248 
2244	 26.9516430867037 
2245	 32.8786410366879 
2246	 38.7801964277581 
2247	 41.574169794865 
2248	 43.3677444417731 
2249	 40.6244616998864 
2250	 31.8332108005207 
2251	 25.7533906387681 
2252	 19.9038943927038 
2253	 10.8778725354227 
2254	-5.80980778085017 
2255	-9.82464320333111 
2256	-11.6724752177766 
2257	-5.11057054673549 
2258	 7.44305673892184 
2259	 17.1813731134262 
2260	 20.9831461652227 
2261	 11.266054497696 
2262	-3.79867559042401 
2263	-12.6159360446835 
2264	-17.8742241041257 
2265	-19.2356504885633 
2266	-3.4576004119394 
2267	-5.57144339107347 
2268	-10.2544927019118 
2269	-10.9464427330215 
2270	-25.1132611058794 
2271	-12.4767210734688 
2272	-1.61395701005915 
2273	 4.45636856494823 
2274	 19.2688773540046 
2275	 23.4389272940282 
2276	 29.4854874973939 
2277	 40.0812270427405 
2278	 40.681064194333 
2279	 33.4787335125332 
2280	 7.79597570380062 
2281	-23.2944872732234 
2282	-37.143820091455 
2283	-45.6950726539912 
2284	-42.4667664718152 
2285	-30.6855230886631 
2286	-22.8618717905141 
2287	-17.6641782247706 
2288	-14.8275853834048 
2289	-10.3008187147316 
2290	-11.3678965671506 
2291	-20.5185192472505 
2292	-18.7330980578849 
2293	-14.8816396601007 
2294	-4.75009685300324 
2295	 19.0323105482094 
2296	 25.4413505510952 
2297	 24.6628090140113 
2298	 26.8833034837843 
2299	 19.4294321649452 
2300	 17.0825779132706 
2301	 26.2737504826077 
2302	 23.0338251655087 
2303	 6.39495803381726 
2304	 0.434658557481995 
2305	-6.61615048436634 
2306	-8.90598599859104 
2307	 1.25770229929928 
2308	 7.10535536190526 
2309	 13.3923364957621 
2310	 14.3798841867645 
2311	 15.5177142491595 
2312	 13.8749802886204 
2313	 1.48741091834319 
2314	-9.07973427121469 
2315	-14.7747425282222 
2316	-24.9011553416443 
2317	-24.5789962780465 
2318	-20.2226774126529 
2319	-34.4752589510799 
2320	-43.3418800794503 
2321	-43.8006627233595 
2322	-52.1823382775759 
2323	-39.7201868599353 
2324	-24.6959453261621 
2325	-17.6601299448289 
2326	-4.15519831023029 
2327	 1.96720896885689 
2328	 6.38011477196245 
2329	 8.56667165572357 
2330	 6.33840529364955 
2331	 2.47576972011916 
2332	 4.88806916037571 
2333	 8.64687590581894 
2334	 7.59417777754619 
2335	 8.19106953934191 
2336	 1.36240334406367 
2337	-3.03693888171398 
2338	-1.94191485346205 
2339	-2.71967648214428 
2340	-3.93417572767193 
2341	-5.51100392434798 
2342	-11.982233136622 
2343	-10.7257156259248 
2344	-0.615051323804082 
2345	 1.3323328980561 
2346	 15.1004165958831 
2347	 19.7440277998956 
2348	 14.6114593578709 
2349	 13.812530629722 
2350	 2.53579960032063 
2351	 2.93757523005774 
2352	 3.52914508335528 
2353	 12.0108342012841 
2354	 31.6938414117338 
2355	 40.5290809455384 
2356	 48.4312727172418 
2357	 50.2945019646777 
2358	 42.8001999588938 
2359	 23.8043735801735 
2360	 7.49366922092679 
2361	-1.10900296105172 
2362	-11.0075529676254 
2363	-7.24929987321459 
2364	 2.79990566699903 
2365	 16.4438237792549 
2366	 21.5126043173743 
2367	 13.8477028441258 
2368	 10.323389106956 
2369	-4.19303032276946 
2370	-12.5578300496944 
2371	-9.04623682079182 
2372	-9.39217615195865 
2373	-9.87239169761144 
2374	-17.1864116624557 
2375	-24.0960415949022 
2376	-26.639776759147 
2377	-26.4626459030025 
2378	-23.1051308022111 
2379	-17.5199745671446 
2380	-8.60943128770119 
2381	 1.61766123584911 
2382	 5.566265189604 
2383	 8.7541320884184 
2384	 16.1856302013601 
2385	 15.9566042464251 
2386	 25.3856641600021 
2387	 36.400667830615 
2388	 39.4791639209226 
2389	 42.5710321506377 
2390	 32.0121280312297 
2391	 23.6652160627572 
2392	 13.465092704109 
2393	 1.83560233452934 
2394	 1.97309729402143 
2395	-3.40728899131661 
2396	-8.96098713360228 
2397	-14.1100807804673 
2398	-20.9388041945312 
2399	-25.6813370004232 
2400	-27.2820449758649 
2401	-26.2211118529425 
2402	-27.2417512456539 
2403	-14.8802062693553 
2404	-8.88799904219506 
2405	-11.2826382331025 
2406	-5.68810945062339 
2407	-13.4400168215816 
2408	-20.6909148004842 
2409	-8.69328545765244 
2410	-0.769781276428298 
2411	 5.01140855920593 
2412	 17.7830816956023 
2413	 17.8136197414279 
2414	 22.4980864082802 
2415	 28.2185092895215 
2416	 26.3322898164616 
2417	 27.5611086462472 
2418	 19.2879335710644 
2419	 12.6600822091553 
2420	 6.47288901070865 
2421	-0.337084704144599 
2422	 3.40630463369993 
2423	 5.44060853332666 
2424	 11.1230276978228 
2425	 16.3574464582926 
2426	 9.70367718757793 
2427	-2.53367440206172 
2428	-10.5284205598623 
2429	-13.4416109320673 
2430	-16.5604531356019 
2431	-4.43666744430145 
2432	-3.05124575368388 
2433	-10.7795127847479 
2434	-5.30747873937625 
2435	-14.548469371641 
2436	-11.3685566720412 
2437	 1.36875991849345 
2438	 2.12176575154219 
2439	 10.9192318506397 
2440	 21.8590706105727 
2441	 28.9792274718773 
2442	 34.9070093279739 
2443	 34.6192140672158 
2444	 18.9892214372596 
2445	 5.34786411234902 
2446	-2.8877599930639 
2447	-8.73666711257572 
2448	 3.43325702648491 
2449	 21.6377128087746 
2450	 31.6435851871057 
2451	 35.5520119156567 
2452	 36.0963170349263 
2453	 28.3392176266784 
2454	 16.1168372527455 
2455	 13.091988289677 
2456	 10.3723402935378 
2457	-0.463482189691418 
2458	-7.88771658675289 
2459	-7.63858374372064 
2460	-11.9389753946338 
2461	-16.743284795484 
2462	-15.1084261935014 
2463	-18.3244514825985 
2464	-17.4755716918119 
2465	-7.07868136829989 
2466	-5.3739370050568 
2467	-5.67877306144052 
2468	-7.6018199500752 
2469	-17.9861809803189 
2470	-14.7262028291773 
2471	-10.2227874875592 
2472	-12.1104160350612 
2473	-1.18353549112558 
2474	-0.634238378596727 
2475	-0.951853274240988 
2476	 2.31175966970317 
2477	-3.75260139587303 
2478	-8.27410182872356 
2479	-8.40853836438274 
2480	-13.7190664101417 
2481	-16.1339521300729 
2482	-15.5435155362424 
2483	-28.5963130100557 
2484	-32.4678789714446 
2485	-33.0440992027957 
2486	-35.4035631684541 
2487	-21.9597110024973 
2488	-15.2788692430152 
2489	-13.7314219375232 
2490	-3.52448052117398 
2491	-7.53065737647274 
2492	-7.72086957385333 
2493	 0.487126085993217 
2494	-5.38312207023578 
2495	-5.30667299696328 
2496	-10.4154619572376 
2497	-11.1948244489029 
2498	-5.24645425978215 
2499	-7.1304052559057 
2500	 7.66778898127879 
