Wavelength	reference_grayABS00000.asd
350	 20.5851522751316 
351	 22.8379108266781 
352	 24.5460259011675 
353	 24.449932819701 
354	 25.5074154670038 
355	 26.3778903530107 
356	 26.1048263714846 
357	 26.9967890131221 
358	 28.8160813634491 
359	 30.7306784504172 
360	 31.4172127540543 
361	 32.9829308162935 
362	 33.9084023949796 
363	 33.0315089278703 
364	 34.2953406471165 
365	 35.9330388835865 
366	 36.9477083805228 
367	 37.4711104544819 
368	 37.8731210126934 
369	 38.4251634622316 
370	 39.3430435241213 
371	 40.7279974129819 
372	 42.5716023085064 
373	 44.2653515197603 
374	 43.6942401141997 
375	 44.5592824882158 
376	 46.3711713807852 
377	 46.8405571905115 
378	 49.1131240743818 
379	 51.286883352862 
380	 52.0994919931628 
381	 54.4944517559017 
382	 56.2042972322833 
383	 57.44066655448 
384	 60.5020534462419 
385	 63.5727463217187 
386	 66.5062318141421 
387	 69.668657732342 
388	 73.9149707888586 
389	 78.0720972091856 
390	 81.3279485298633 
391	 83.179214166722 
392	 88.3075035715865 
393	 94.5651759679042 
394	 97.7837234863296 
395	 104.830399822797 
396	 113.193392323346 
397	 120.512818563236 
398	 127.671647473136 
399	 136.086221176712 
400	 145.942849389855 
401	 156.462160791161 
402	 168.356705445261 
403	 181.484023641559 
404	 195.633365848546 
405	 211.316409453526 
406	 227.735357855773 
407	 244.989404283725 
408	 264.706458769028 
409	 284.964981059447 
410	 306.351529642831 
411	 330.144380502914 
412	 353.124276652621 
413	 377.961300345737 
414	 405.907005252814 
415	 431.971504855384 
416	 459.473631905383 
417	 488.424560419997 
418	 516.007494409198 
419	 544.562889725617 
420	 573.48461161928 
421	 601.729142270406 
422	 630.639806884359 
423	 658.364617583451 
424	 684.49316176538 
425	 711.863519499506 
426	 737.529417383854 
427	 761.456073586433 
428	 785.196124853261 
429	 810.619665580756 
430	 834.069508001753 
431	 853.44452086159 
432	 876.508885972423 
433	 897.848923405577 
434	 916.15886743336 
435	 935.647503364946 
436	 953.155124756804 
437	 970.015820005107 
438	 988.563194028796 
439	 1004.20429075294 
440	 1019.01062944447 
441	 1034.9936297891 
442	 1052.07420032163 
443	 1067.36062939009 
444	 1081.28372012398 
445	 1097.32815268435 
446	 1113.06889933367 
447	 1128.04485036689 
448	 1142.35599465338 
449	 1156.14136065116 
450	 1170.04321652729 
451	 1183.93724100923 
452	 1195.5949406027 
453	 1209.15088537737 
454	 1224.47877370953 
455	 1238.61999882137 
456	 1252.74603556619 
457	 1267.30149491105 
458	 1282.51929570772 
459	 1298.15996390501 
460	 1314.19542688271 
461	 1330.68066773736 
462	 1347.77460809791 
463	 1365.73781867041 
464	 1384.18962728321 
465	 1402.42697878247 
466	 1421.20830913515 
467	 1441.41511034963 
468	 1463.32109340346 
469	 1484.5412253959 
470	 1507.86911488099 
471	 1533.42176541038 
472	 1556.8340784919 
473	 1581.78054533784 
474	 1608.96346684733 
475	 1637.7010597546 
476	 1666.28690198515 
477	 1695.40406125477 
478	 1725.70649533276 
479	 1755.7504806602 
480	 1787.9185816337 
481	 1822.55052100335 
482	 1857.20192153045 
483	 1891.95643897315 
484	 1927.83220635464 
485	 1966.32339548267 
486	 2007.04512804621 
487	 2049.38201719521 
488	 2092.38673645909 
489	 2133.91082606909 
490	 2177.17709755489 
491	 2223.35046787063 
492	 2271.11424333757 
493	 2318.83330869917 
494	 2367.50658223017 
495	 2419.02171221077 
496	 2470.25207690607 
497	 2522.51014685229 
498	 2577.11379221522 
499	 2633.26154308349 
500	 2689.8670905642 
501	 2746.64200552993 
502	 2804.29500900875 
503	 2862.2714394193 
504	 2921.57194356104 
505	 2983.50189625239 
506	 3044.82974457575 
507	 3106.56599448615 
508	 3169.9809841724 
509	 3234.70247899245 
510	 3301.62056544679 
511	 3369.87450031712 
512	 3435.82553251316 
513	 3506.04356467626 
514	 3578.8913949814 
515	 3649.6254177574 
516	 3723.22484187625 
517	 3798.71078758373 
518	 3874.24661649986 
519	 3948.46431146389 
520	 4022.94268757715 
521	 4099.12342962047 
522	 4178.61586299167 
523	 4257.63488289206 
524	 4336.417009555 
525	 4416.87682313596 
526	 4495.86291201133 
527	 4575.64901663551 
528	 4657.8257490724 
529	 4737.28528595462 
530	 4816.53711076352 
531	 4897.23734256331 
532	 4980.00183896328 
533	 5060.09824173108 
534	 5137.94747448077 
535	 5216.71100052609 
536	 5295.28829613183 
537	 5372.30741670008 
538	 5447.04359828493 
539	 5521.92823111783 
540	 5597.24261229703 
541	 5672.28631416854 
542	 5744.57019048755 
543	 5816.24297460851 
544	 5887.62941342049 
545	 5958.06808881529 
546	 6027.33017622199 
547	 6096.10001237178 
548	 6164.88387007976 
549	 6231.95598507412 
550	 6298.10324299762 
551	 6363.48962443246 
552	 6426.55255635385 
553	 6488.37831580341 
554	 6549.15356379032 
555	 6608.46474211372 
556	 6665.67877017957 
557	 6720.8491111871 
558	 6773.85784517084 
559	 6821.50307463724 
560	 6869.16363207626 
561	 6917.83081557215 
562	 6955.67742486237 
563	 6989.83676804581 
564	 7020.42516663197 
565	 7041.30517492373 
566	 7057.02044049193 
567	 7067.21783000243 
568	 7070.32182124904 
569	 7068.14427498194 
570	 7060.11837983645 
571	 7047.12376743534 
572	 7035.87223718319 
573	 7018.59015816523 
574	 6994.20431259886 
575	 6969.7567946457 
576	 6938.96729978237 
577	 6901.87216910453 
578	 6860.93901427627 
579	 6815.8272077818 
580	 6767.26051940135 
581	 6717.06488848927 
582	 6669.27635635786 
583	 6630.63673948018 
584	 6599.31696090221 
585	 6559.85518299839 
586	 6521.0644210328 
587	 6482.79912502415 
588	 6441.46606435392 
589	 6404.01068402886 
590	 6372.38245493989 
591	 6347.77804684502 
592	 6334.28310848154 
593	 6325.34187252048 
594	 6316.69195773032 
595	 6307.27100293596 
596	 6309.78049801236 
597	 6327.37277432799 
598	 6356.49903042817 
599	 6386.77654971666 
600	 6416.78938124932 
601	 6448.64683545593 
602	 6487.93645939655 
603	 6525.96351690617 
604	 6558.99959490559 
605	 6597.45834729715 
606	 6637.53006388037 
607	 6683.99789394545 
608	 6749.74463205061 
609	 6825.28732478467 
610	 6910.05601928701 
611	 7004.49925532983 
612	 7096.67758208609 
613	 7185.85982059149 
614	 7271.35654023555 
615	 7346.14775843651 
616	 7420.18126763278 
617	 7495.24750973515 
618	 7562.70446715643 
619	 7634.69830633255 
620	 7711.14323477891 
621	 7787.06809117401 
622	 7865.79708832838 
623	 7947.07099534621 
624	 8029.44472313771 
625	 8109.52292239085 
626	 8188.16176944691 
627	 8265.59328388997 
628	 8341.0179476923 
629	 8413.33521484711 
630	 8481.21726821689 
631	 8543.49068968401 
632	 8606.47375443123 
633	 8664.41461883859 
634	 8712.66573355039 
635	 8766.28602417282 
636	 8819.2517337571 
637	 8867.80198127238 
638	 8914.96194893321 
639	 8961.18531071633 
640	 9006.88457682999 
641	 9052.39658727346 
642	 9104.89292633826 
643	 9159.17839023261 
644	 9208.33026545459 
645	 9260.69122751072 
646	 9315.92259741428 
647	 9372.886198131 
648	 9431.084935381 
649	 9487.23405276098 
650	 9543.27621272002 
651	 9606.68588047845 
652	 9669.99574929167 
653	 9735.69902619444 
654	 9808.31712414531 
655	 9877.91715311811 
656	 9945.84367996003 
657	 10014.7377340496 
658	 10085.6573543502 
659	 10159.9381713745 
660	 10237.3938216085 
661	 10316.0022961787 
662	 10394.6470554416 
663	 10473.3301909651 
664	 10552.6684959375 
665	 10631.825029524 
666	 10712.4362682689 
667	 10796.1948611232 
668	 10883.5483425174 
669	 10972.5208078926 
670	 11062.2885522855 
671	 11153.7645758424 
672	 11247.8024609115 
673	 11343.8027753076 
674	 11440.4273918906 
675	 11541.3076753817 
676	 11643.7758083699 
677	 11745.3847295712 
678	 11852.3590856572 
679	 11958.6024257276 
680	 12062.2655388473 
681	 12171.1200755117 
682	 12279.9168725069 
683	 12388.4561528275 
684	 12499.6273720058 
685	 12612.8416594124 
686	 12727.2985087254 
687	 12842.0027627843 
688	 12955.6089699504 
689	 13071.0306968515 
690	 13188.8459329431 
691	 13303.6684733269 
692	 13417.0227656057 
693	 13530.2971253375 
694	 13645.1499196203 
695	 13753.7820338866 
696	 13860.3848191168 
697	 13971.0049932436 
698	 14074.8087968024 
699	 14177.2258496408 
700	 14280.7055082146 
701	 14374.7813633607 
702	 14468.8947028112 
703	 14562.879597717 
704	 14646.9181408184 
705	 14734.6633623884 
706	 14820.6267148749 
707	 14894.7192696331 
708	 14970.2590565592 
709	 15043.2199389983 
710	 15110.7340769219 
711	 15180.7376606291 
712	 15244.0272023816 
713	 15300.0028889521 
714	 15357.8103021534 
715	 15414.9081601654 
716	 15468.326734439 
717	 15515.7618248723 
718	 15568.4017305028 
719	 15621.0891331698 
720	 15668.4147646192 
721	 15712.1626952361 
722	 15753.2343149866 
723	 15793.1462241215 
724	 15834.2840735218 
725	 15876.5846909408 
726	 15920.911598046 
727	 15967.5002513762 
728	 16006.7525226982 
729	 16045.778951571 
730	 16089.6309949773 
731	 16125.8576743378 
732	 16166.7099926494 
733	 16213.7703435981 
734	 16254.3590106317 
735	 16291.008894528 
736	 16326.1872552991 
737	 16362.2186057496 
738	 16390.6656291236 
739	 16415.332448416 
740	 16440.0157193239 
741	 16460.21675178 
742	 16483.2937607613 
743	 16508.6259970619 
744	 16524.1318228927 
745	 16541.523502636 
746	 16557.2041617463 
747	 16562.8758845766 
748	 16575.9049504962 
749	 16589.6751193553 
750	 16596.7191106319 
751	 16600.4763096166 
752	 16602.1547087125 
753	 16601.8173344175 
754	 16597.8548159701 
755	 16594.6293439942 
756	 16590.2520970307 
757	 16579.7684251509 
758	 16558.4268383758 
759	 16526.1211012853 
760	 16489.5553386071 
761	 16474.138090689 
762	 16464.0044315566 
763	 16452.0277304317 
764	 16441.2895104375 
765	 16427.6736134442 
766	 16410.5863834448 
767	 16390.1161141607 
768	 16358.6078302392 
769	 16324.6466165609 
770	 16294.530518569 
771	 16261.6468770435 
772	 16229.4505891539 
773	 16197.4558565222 
774	 16161.1337568897 
775	 16121.6996465354 
776	 16082.185043934 
777	 16045.1798014777 
778	 16003.9620686744 
779	 15958.1321328967 
780	 15908.8825717122 
781	 15859.0873662759 
782	 15809.8363728986 
783	 15759.2513075549 
784	 15702.7639229941 
785	 15647.3121779848 
786	 15591.1400302474 
787	 15531.7486073741 
788	 15478.1994349727 
789	 15420.4642843852 
790	 15356.2872186511 
791	 15303.4653567591 
792	 15243.6138462097 
793	 15175.0825608396 
794	 15106.2742989063 
795	 15036.1338746271 
796	 14966.0601508025 
797	 14897.4971914989 
798	 14831.1985971214 
799	 14763.5449958333 
800	 14693.1692954365 
801	 14622.0696199584 
802	 14552.0484930754 
803	 14484.1894908287 
804	 14418.5383918569 
805	 14349.2562768442 
806	 14277.5441426965 
807	 14204.6281475207 
808	 14126.8100318976 
809	 14052.2418146661 
810	 13980.4720458824 
811	 13901.3956266966 
812	 13828.3643783069 
813	 13757.0686082859 
814	 13679.4830560735 
815	 13605.9831278323 
816	 13531.4631161278 
817	 13453.8430700417 
818	 13381.7351097523 
819	 13306.1029237657 
820	 13226.4717683451 
821	 13147.7548103118 
822	 13063.5181801014 
823	 12978.3244823895 
824	 12897.7659458336 
825	 12820.8983792343 
826	 12745.4865858672 
827	 12671.0839413204 
828	 12600.5803097537 
829	 12523.6432359731 
830	 12439.3228524839 
831	 12350.2500020631 
832	 12251.0297893089 
833	 12150.3926833349 
834	 12056.254568351 
835	 11969.7751305689 
836	 11891.5231509466 
837	 11820.9985576972 
838	 11756.7682153975 
839	 11702.2306702256 
840	 11652.7750009043 
841	 11601.4471398911 
842	 11541.8262244902 
843	 11474.1016510713 
844	 11400.7521634978 
845	 11326.9930430694 
846	 11253.1738116234 
847	 11178.957772725 
848	 11103.5976323589 
849	 11028.6311210549 
850	 10954.1787800729 
851	 10880.3322874113 
852	 10807.7835905042 
853	 10735.1203309834 
854	 10663.0716331023 
855	 10593.8608862458 
856	 10524.6708433017 
857	 10454.0200394642 
858	 10381.4400880975 
859	 10309.0376164672 
860	 10236.2078561897 
861	 10163.0063548991 
862	 10090.3497480537 
863	 10019.9896946256 
864	 9951.45328404479 
865	 9883.20919059903 
866	 9813.45833173619 
867	 9742.59255529392 
868	 9672.0367283188 
869	 9605.09825452359 
870	 9538.61152421853 
871	 9471.66393205411 
872	 9404.38132960391 
873	 9336.43582972158 
874	 9268.08542801486 
875	 9199.08979286798 
876	 9127.22271183858 
877	 9055.37917409874 
878	 8985.48445599008 
879	 8918.59491842436 
880	 8851.13322661783 
881	 8784.98079692238 
882	 8721.44729702849 
883	 8653.77754766266 
884	 8589.22534551297 
885	 8528.16903605787 
886	 8462.62218422621 
887	 8394.36595289329 
888	 8327.06741654373 
889	 8263.69540558982 
890	 8198.47727694689 
891	 8132.95273363854 
892	 8068.15858884882 
893	 8003.88749453195 
894	 7936.00795620757 
895	 7867.18075229192 
896	 7801.98984620992 
897	 7736.28625687613 
898	 7669.67090228888 
899	 7603.40330463239 
900	 7541.83761202219 
901	 7479.11645479304 
902	 7415.02810916967 
903	 7351.92674038271 
904	 7289.01361054977 
905	 7226.93012665751 
906	 7165.80120158195 
907	 7104.37885587515 
908	 7041.71304174126 
909	 6977.64749964992 
910	 6912.6660251407 
911	 6847.39802046202 
912	 6784.29478031506 
913	 6724.12341382475 
914	 6662.67419079462 
915	 6601.68003487953 
916	 6540.50560083066 
917	 6477.34144896215 
918	 6417.55746918642 
919	 6357.69104209193 
920	 6294.81887151128 
921	 6232.40229402173 
922	 6169.14138942408 
923	 6106.75184425648 
924	 6048.74096764259 
925	 5988.85860179911 
926	 5930.36324680713 
927	 5875.09229571434 
928	 5815.19627683553 
929	 5753.3371433097 
930	 5689.53459666548 
931	 5622.29868515383 
932	 5558.18398892818 
933	 5495.07536489314 
934	 5430.74539261758 
935	 5367.4709788102 
936	 5309.12967757039 
937	 5253.98113697984 
938	 5196.34567839243 
939	 5138.55408417643 
940	 5081.24751074074 
941	 5024.01217618654 
942	 4963.76553805627 
943	 4905.19504771502 
944	 4848.6385051062 
945	 4791.74521424308 
946	 4736.49898082905 
947	 4681.45485671057 
948	 4626.032061856 
949	 4573.35298253707 
950	 4519.3820673669 
951	 4464.82660890119 
952	 4412.71152767284 
953	 4361.36241009223 
954	 4309.47701845678 
955	 4256.96132729603 
956	 4206.41080507968 
957	 4154.05364522288 
958	 4100.95746608645 
959	 4049.72845112854 
960	 3997.43340607557 
961	 3944.5416888385 
962	 3891.87504815662 
963	 3840.37839231488 
964	 3788.03931559419 
965	 3735.45636239005 
966	 6255.31989800434 
967	 6327.33318069786 
968	 6404.06380765572 
969	 6487.3081149173 
970	 6577.91438406939 
971	 6672.75604668768 
972	 6773.63274637191 
973	 6878.17173665275 
974	 6994.54876535432 
975	 7103.00539856575 
976	 7210.35741114515 
977	 7319.60291684427 
978	 7425.85799008822 
979	 7529.30930875472 
980	 7630.86910970876 
981	 7724.80755317214 
982	 7808.63452160674 
983	 7889.93840272181 
984	 7973.46578978785 
985	 8054.22132594262 
986	 8128.37041461306 
987	 8199.0401741129 
988	 8268.59356697365 
989	 8329.24676751959 
990	 8393.90569901723 
991	 8463.55558994722 
992	 8527.69611827255 
993	 8587.91145535825 
994	 8647.11347553523 
995	 8708.81377072928 
996	 8765.53877106281 
997	 8821.86138967363 
998	 8885.33188491744 
999	 8950.32790828982 
1000	 9014.98413744837 
1001	 9079.84500702645 
1002	 9141.21230573592 
1003	 9200.0890481052 
1004	 9260.64353079604 
1005	 9323.13946788298 
1006	 9391.1883865435 
1007	 9452.16117469582 
1008	 9511.1044607627 
1009	 9569.72670869983 
1010	 9626.10800751165 
1011	 9682.42090812263 
1012	 9738.76026864699 
1013	 9793.37518929312 
1014	 9849.31705943294 
1015	 9905.33953772512 
1016	 9958.82583769936 
1017	 10012.9692425463 
1018	 10064.8599665501 
1019	 10112.763138966 
1020	 10164.7003402435 
1021	 10218.762661892 
1022	 10270.3966496057 
1023	 10323.4943535727 
1024	 10377.7188055193 
1025	 10432.593100637 
1026	 10488.1674871158 
1027	 10546.3651179819 
1028	 10599.2215754995 
1029	 10651.2863799176 
1030	 10705.8427188958 
1031	 10757.0349690392 
1032	 10810.8893056558 
1033	 10866.2956780352 
1034	 10921.7751777479 
1035	 10978.5943202542 
1036	 11036.2535067885 
1037	 11095.2737914202 
1038	 11151.2551787466 
1039	 11205.2965128024 
1040	 11259.600623315 
1041	 11313.9630066294 
1042	 11367.0091695732 
1043	 11419.9478586264 
1044	 11470.7902247486 
1045	 11520.02360092 
1046	 11567.3830901169 
1047	 11614.0365052238 
1048	 11659.4429339005 
1049	 11707.0694564521 
1050	 11753.393903427 
1051	 11795.4785652298 
1052	 11837.765048017 
1053	 11879.6685754858 
1054	 11920.3021530755 
1055	 11958.7387339278 
1056	 11996.3869391549 
1057	 12036.4538589972 
1058	 12074.938823495 
1059	 12114.8123562053 
1060	 12159.9139116899 
1061	 12201.0268218737 
1062	 12240.5924458351 
1063	 12276.837836875 
1064	 12312.591702265 
1065	 12351.3289722587 
1066	 12390.3365521646 
1067	 12429.3580346382 
1068	 12472.296927854 
1069	 12517.3023183069 
1070	 12566.0421914917 
1071	 12615.442248384 
1072	 12661.1148809076 
1073	 12709.5747294104 
1074	 12757.4230871981 
1075	 12801.2211127403 
1076	 12850.1564298157 
1077	 12902.0530438411 
1078	 12955.3712858576 
1079	 13009.8081874714 
1080	 13067.4179044837 
1081	 13130.4553756123 
1082	 13190.8982841373 
1083	 13250.790527761 
1084	 13313.0704894045 
1085	 13374.3885218624 
1086	 13436.8771150781 
1087	 13509.6182472024 
1088	 13585.6050906775 
1089	 13658.8663957015 
1090	 13736.0842636107 
1091	 13816.8420810314 
1092	 13895.2679326941 
1093	 13982.0944850323 
1094	 14076.3618856585 
1095	 14173.7535591132 
1096	 14274.9880177406 
1097	 14379.636286402 
1098	 14489.0824943857 
1099	 14603.2658138495 
1100	 14719.0303379419 
1101	 14841.103547866 
1102	 14971.0972947197 
1103	 15102.4437575602 
1104	 15235.9312354284 
1105	 15375.799081474 
1106	 15518.6800040528 
1107	 15667.8078036716 
1108	 15820.2904338832 
1109	 15976.177670381 
1110	 16135.2601987944 
1111	 16296.8952140857 
1112	 16462.3358947857 
1113	 16632.0260352992 
1114	 16804.4273280123 
1115	 16978.952323172 
1116	 17159.1130872223 
1117	 17343.5807004122 
1118	 17531.076462438 
1119	 17723.3036459722 
1120	 17918.4845288501 
1121	 18115.9266574341 
1122	 18317.9757997806 
1123	 18523.1270043683 
1124	 18733.8993810896 
1125	 18948.840780987 
1126	 19170.0658102946 
1127	 19392.326883167 
1128	 19621.9270225539 
1129	 19844.2575229998 
1130	 20066.577519838 
1131	 20286.6353103784 
1132	 20504.6938817299 
1133	 20720.3616142358 
1134	 20934.3853054668 
1135	 21147.296402596 
1136	 21357.2016540596 
1137	 21566.8915797092 
1138	 21777.9951130949 
1139	 21984.3145650194 
1140	 22188.5286479962 
1141	 22389.1673452718 
1142	 22584.1322131704 
1143	 22780.2559991286 
1144	 22976.0431927481 
1145	 23168.3864176321 
1146	 23361.3239078422 
1147	 23549.4689816686 
1148	 23733.752648837 
1149	 23912.7709036849 
1150	 24091.5974682928 
1151	 24268.2107793002 
1152	 24441.5573533173 
1153	 24614.9160488046 
1154	 24779.6413932144 
1155	 24939.1653524118 
1156	 25094.487937124 
1157	 25242.1986377713 
1158	 25389.7529843266 
1159	 25537.3105209396 
1160	 25676.2433654689 
1161	 25812.3528534175 
1162	 25940.2191264621 
1163	 26057.5655353873 
1164	 26173.877517936 
1165	 26286.8766599081 
1166	 26393.583515088 
1167	 26495.0402216775 
1168	 26593.3997521032 
1169	 26688.1076603001 
1170	 26774.8314020616 
1171	 26859.7304179588 
1172	 26942.7760873393 
1173	 27019.9120092381 
1174	 27090.6953005769 
1175	 27160.4729744272 
1176	 27227.0534128041 
1177	 27290.1482447725 
1178	 27350.7452629035 
1179	 27406.8752228014 
1180	 27456.3988978197 
1181	 27508.4519848491 
1182	 27558.7353914452 
1183	 27607.7248199297 
1184	 27659.076976358 
1185	 27704.9857653949 
1186	 27745.3946506191 
1187	 27786.1178614035 
1188	 27823.2308358964 
1189	 27861.6993745533 
1190	 27900.9043988277 
1191	 27938.2584967777 
1192	 27976.6095943859 
1193	 28018.3049096649 
1194	 28054.0241401513 
1195	 28088.3620630107 
1196	 28120.4127369877 
1197	 28149.0984618668 
1198	 28174.9050667591 
1199	 28199.1412303518 
1200	 28220.7907181602 
1201	 28239.4476706017 
1202	 28255.7103362683 
1203	 28269.7057536483 
1204	 28281.4302420369 
1205	 28289.214164235 
1206	 28296.4796239542 
1207	 28303.1408058339 
1208	 28307.8300263274 
1209	 28309.6447511418 
1210	 28310.958103141 
1211	 28311.1011579753 
1212	 28309.1637729337 
1213	 28307.1085790552 
1214	 28306.8556794628 
1215	 28306.1246847764 
1216	 28304.689250517 
1217	 28304.4626104775 
1218	 28302.4333238007 
1219	 28297.0312540246 
1220	 28292.4852680433 
1221	 28288.4100669883 
1222	 28282.1032636545 
1223	 28279.5665293045 
1224	 28280.9059804452 
1225	 28279.3306346193 
1226	 28279.0182595503 
1227	 28275.7056832266 
1228	 28267.5722472749 
1229	 28263.9355582243 
1230	 28259.7562103105 
1231	 28258.7202403059 
1232	 28262.3794902788 
1233	 28265.2051659238 
1234	 28269.8944067897 
1235	 28273.8105372184 
1236	 28278.9071761762 
1237	 28279.7109740444 
1238	 28282.8940440616 
1239	 28287.3059631471 
1240	 28294.0337880123 
1241	 28304.6306824345 
1242	 28317.0463231866 
1243	 28328.628644265 
1244	 28336.6432191706 
1245	 28350.9919455302 
1246	 28369.1062156195 
1247	 28389.2261617494 
1248	 28414.6580987492 
1249	 28436.8736981903 
1250	 28460.7171006314 
1251	 28483.2849079991 
1252	 28508.9985164316 
1253	 28538.562666611 
1254	 28566.2923861439 
1255	 28592.7401255006 
1256	 28622.2648770823 
1257	 28652.1724258161 
1258	 28683.0240500364 
1259	 28720.1761217488 
1260	 28751.4893198487 
1261	 28780.2791206884 
1262	 28807.7664859829 
1263	 28833.1333503747 
1264	 28856.4849021134 
1265	 28878.3718107609 
1266	 28899.3433150727 
1267	 28919.2027486639 
1268	 28932.7850757695 
1269	 28942.5163868972 
1270	 28948.3530106109 
1271	 28944.6313887283 
1272	 28936.2724342027 
1273	 28924.5294503987 
1274	 28905.2542053202 
1275	 28882.1004515435 
1276	 28855.08139823 
1277	 28820.8944169019 
1278	 28782.3533043673 
1279	 28739.8574411588 
1280	 28692.7505229702 
1281	 28641.2562059114 
1282	 28584.0646211515 
1283	 28526.4987392467 
1284	 28463.4543359384 
1285	 28402.0624308487 
1286	 28338.6159058505 
1287	 28278.3887002255 
1288	 28217.9178637102 
1289	 28161.8042175733 
1290	 28107.4988793607 
1291	 28054.6344809114 
1292	 28002.6002213857 
1293	 27950.4604779703 
1294	 27905.1759694289 
1295	 27867.2594658926 
1296	 27837.0387119868 
1297	 27811.1773001905 
1298	 27789.7723623153 
1299	 27772.130714728 
1300	 27756.1375558534 
1301	 27750.3919459735 
1302	 27753.0174898597 
1303	 27756.6943486691 
1304	 27767.9790802198 
1305	 27783.9888925643 
1306	 27801.02741482 
1307	 27822.69955322 
1308	 27843.3566024411 
1309	 27865.1902396229 
1310	 27885.7513248381 
1311	 27907.4211094534 
1312	 27933.3337222673 
1313	 27962.7143954917 
1314	 27992.0736679489 
1315	 28023.850806758 
1316	 28056.6882921372 
1317	 28089.4778091699 
1318	 28127.0976785141 
1319	 28166.2388792534 
1320	 28212.0236998033 
1321	 28264.1280494689 
1322	 28318.1895750507 
1323	 28378.0429848415 
1324	 28440.4997328664 
1325	 28505.6519583269 
1326	 28578.6134538763 
1327	 28658.1393599588 
1328	 28746.7568862721 
1329	 28841.3753753867 
1330	 28935.5763679239 
1331	 29034.3786441622 
1332	 29135.6629769991 
1333	 29241.8417629871 
1334	 29358.2118992259 
1335	 29476.0980718887 
1336	 29597.8506228355 
1337	 29725.6335962815 
1338	 29853.6025322362 
1339	 29982.8452642795 
1340	 30109.8552590795 
1341	 30233.7849191993 
1342	 30354.2451342221 
1343	 30469.9256106172 
1344	 30584.2540730432 
1345	 30693.6847530003 
1346	 30794.7064668353 
1347	 30885.8234454672 
1348	 30970.6120361085 
1349	 31042.1402006244 
1350	 31100.475531848 
1351	 31151.5134877974 
1352	 31189.4919680586 
1353	 31227.9004994834 
1354	 31257.7683105442 
1355	 31290.0168480605 
1356	 31326.8210221452 
1357	 31364.2209951163 
1358	 31411.8990136996 
1359	 31469.5166473753 
1360	 31534.8366488367 
1361	 31617.13109256 
1362	 31720.1415423311 
1363	 31844.002059978 
1364	 31994.2014127594 
1365	 32162.6813358816 
1366	 32348.3578024676 
1367	 32543.9267041588 
1368	 32745.1960513391 
1369	 32937.5704095657 
1370	 33123.0484041105 
1371	 33289.6538348334 
1372	 33425.3478918885 
1373	 33540.1205473272 
1374	 33614.6110882691 
1375	 33652.8062519844 
1376	 33654.9934940962 
1377	 33628.4894608333 
1378	 33575.8000598949 
1379	 33508.6286383524 
1380	 33434.1102867264 
1381	 33358.5937489833 
1382	 33291.6180856996 
1383	 33230.5603434396 
1384	 33188.4833096007 
1385	 33158.6854954298 
1386	 33148.8267734507 
1387	 33153.9184190444 
1388	 33163.88619583 
1389	 33186.1634342125 
1390	 33218.9155934661 
1391	 33256.679747744 
1392	 33313.19488582 
1393	 33384.3755614775 
1394	 33466.9721753801 
1395	 33563.5902868448 
1396	 33672.895631784 
1397	 33791.2662209869 
1398	 33917.8376726926 
1399	 34049.9848262303 
1400	 34175.7956211087 
1401	 34300.0048434529 
1402	 34421.7408891173 
1403	 34531.3009565587 
1404	 34633.572254646 
1405	 34718.992595352 
1406	 34795.340652935 
1407	 34865.7941264823 
1408	 34928.948867663 
1409	 34994.0881014766 
1410	 35053.9445292388 
1411	 35109.8285182695 
1412	 35161.6991843741 
1413	 35202.7049641029 
1414	 35242.6117385729 
1415	 35280.3944640168 
1416	 35309.9661070703 
1417	 35338.7494996514 
1418	 35363.040828305 
1419	 35376.7226497748 
1420	 35383.1844413962 
1421	 35384.8082673044 
1422	 35376.4089491449 
1423	 35362.8763360836 
1424	 35349.2129558111 
1425	 35329.1433770231 
1426	 35303.9825194238 
1427	 35273.2143125988 
1428	 35238.6367737295 
1429	 35198.2069029347 
1430	 35155.6057415326 
1431	 35115.4119152267 
1432	 35069.3081502775 
1433	 35023.1626720991 
1434	 34977.9137406054 
1435	 34927.9265390179 
1436	 34880.2441821167 
1437	 34833.014674837 
1438	 34785.8709161945 
1439	 34743.2766863325 
1440	 34697.8243557729 
1441	 34655.2684299254 
1442	 34615.7390050176 
1443	 34574.4536255581 
1444	 34538.3805123089 
1445	 34502.6526219307 
1446	 34469.1542157679 
1447	 34434.1664535695 
1448	 34400.0954495748 
1449	 34363.8856095766 
1450	 34325.391656072 
1451	 34287.9985431804 
1452	 34251.1415470008 
1453	 34213.0691768935 
1454	 34171.650652532 
1455	 34127.8778143246 
1456	 34077.0382391989 
1457	 34022.7017537981 
1458	 33971.499147902 
1459	 33922.2617753255 
1460	 33871.5049160506 
1461	 33819.0067451183 
1462	 33761.1604040754 
1463	 33695.8172986664 
1464	 33630.1952968267 
1465	 33565.3298443291 
1466	 33499.8897923843 
1467	 33434.5272511672 
1468	 33368.8324369196 
1469	 33304.5046836969 
1470	 33243.6477088544 
1471	 33187.3644287511 
1472	 33136.2651253333 
1473	 33087.4900293645 
1474	 33039.8622361644 
1475	 32993.1694167618 
1476	 32944.9230752368 
1477	 32898.4856511826 
1478	 32852.8097890627 
1479	 32807.6239780275 
1480	 32763.2556079092 
1481	 32714.613144627 
1482	 32666.6904299253 
1483	 32621.9889672683 
1484	 32579.0991787862 
1485	 32541.0328055044 
1486	 32503.8367840252 
1487	 32463.6270636962 
1488	 32422.658733699 
1489	 32381.9500623779 
1490	 32341.6014425318 
1491	 32301.1449870587 
1492	 32261.298729021 
1493	 32222.8233598399 
1494	 32184.1410244379 
1495	 32145.886152003 
1496	 32106.5391898849 
1497	 32062.4526832373 
1498	 32018.8178337911 
1499	 31978.8101104106 
1500	 31938.6118506128 
1501	 31901.4290120328 
1502	 31863.5587382666 
1503	 31822.8384338556 
1504	 31784.7098347844 
1505	 31743.1089303426 
1506	 31699.1716962249 
1507	 31657.5558519988 
1508	 31614.3924824933 
1509	 31572.6326557784 
1510	 31534.5591268464 
1511	 31494.9618145858 
1512	 31455.0365795562 
1513	 31415.2144515605 
1514	 31374.162447129 
1515	 31334.456986386 
1516	 31294.2560496921 
1517	 31250.8368942166 
1518	 31206.6462217921 
1519	 31164.1390240933 
1520	 31119.5728858227 
1521	 31077.1427009507 
1522	 31036.1442975275 
1523	 30989.8073836945 
1524	 30943.3116657587 
1525	 30896.5294698048 
1526	 30850.9615245166 
1527	 30808.0429838369 
1528	 30762.8282956123 
1529	 30717.476816292 
1530	 30672.0255014846 
1531	 30624.946808701 
1532	 30580.0015657958 
1533	 30534.2316277481 
1534	 30484.8851888687 
1535	 30437.2046904654 
1536	 30390.714290173 
1537	 30341.5413993419 
1538	 30292.6559931066 
1539	 30245.8840612856 
1540	 30193.9111864561 
1541	 30142.2471022122 
1542	 30095.0964601393 
1543	 30043.7652686567 
1544	 29992.1589395996 
1545	 29940.6349156714 
1546	 29886.3641179383 
1547	 29829.9377009843 
1548	 29772.7225896421 
1549	 29716.4271002126 
1550	 29657.68948278 
1551	 29600.7526774216 
1552	 29546.7982283204 
1553	 29491.699194683 
1554	 29437.5209385437 
1555	 29382.9175695467 
1556	 29324.5546669809 
1557	 29265.7993856944 
1558	 29208.841185455 
1559	 29150.5609611168 
1560	 29095.5122311071 
1561	 29037.2734671128 
1562	 28971.3613933314 
1563	 28908.2362812886 
1564	 28841.5138319034 
1565	 28775.7902680186 
1566	 28717.521520015 
1567	 28656.8926242447 
1568	 28597.620397091 
1569	 28536.1057518939 
1570	 28468.9430532637 
1571	 28401.7194401589 
1572	 28330.863288166 
1573	 28263.0220907099 
1574	 28198.3681622453 
1575	 28131.1000955437 
1576	 28065.3029698047 
1577	 27997.4351655907 
1578	 27927.9947330842 
1579	 27858.190893582 
1580	 27789.1121189222 
1581	 27719.7317529694 
1582	 27647.2856046401 
1583	 27578.0711826977 
1584	 27507.2471969137 
1585	 27435.2674455959 
1586	 27365.5496292247 
1587	 27292.5156763921 
1588	 27218.9569189133 
1589	 27146.1599967045 
1590	 27072.8167140505 
1591	 27002.389114138 
1592	 26933.9639411537 
1593	 26860.5844615757 
1594	 26787.8225216018 
1595	 26714.8068212609 
1596	 26638.7920013342 
1597	 26566.7419383984 
1598	 26494.4474187884 
1599	 26419.794452255 
1600	 26345.5561420429 
1601	 26271.3021223659 
1602	 26195.2842851038 
1603	 26120.3160460353 
1604	 26047.603619439 
1605	 25973.1667729298 
1606	 25898.6151178707 
1607	 25824.5711411615 
1608	 25744.9483982873 
1609	 25659.6732076083 
1610	 25573.2414796528 
1611	 25486.0914437138 
1612	 25400.5677662288 
1613	 25318.4318039515 
1614	 25238.7586068264 
1615	 25158.1485525552 
1616	 25072.8305553045 
1617	 24984.8373831811 
1618	 24896.2849128065 
1619	 24806.4390452315 
1620	 24718.7124081894 
1621	 24630.0450351058 
1622	 24534.7758474407 
1623	 24438.6861786367 
1624	 24342.4885609525 
1625	 24247.0276265908 
1626	 24156.4262694284 
1627	 24065.2149017331 
1628	 23971.8802954748 
1629	 23879.2963486327 
1630	 23783.9091036519 
1631	 23691.0508899991 
1632	 23600.0209999732 
1633	 23504.8180572857 
1634	 23413.5452097808 
1635	 23324.1099089584 
1636	 23236.6173291235 
1637	 23151.0603586585 
1638	 23068.6998031315 
1639	 22984.5714813451 
1640	 22900.9833500641 
1641	 22816.1154693351 
1642	 22730.8704755304 
1643	 22645.0323564009 
1644	 22559.4376948504 
1645	 22471.017605551 
1646	 22382.989559505 
1647	 22289.3745702817 
1648	 22191.9111671877 
1649	 22091.5706574039 
1650	 21984.6125388682 
1651	 21880.5613528554 
1652	 21776.0791360208 
1653	 21670.4950857341 
1654	 21569.4562703854 
1655	 21458.2245380223 
1656	 21346.7472295734 
1657	 21220.1736964204 
1658	 21083.0713606646 
1659	 20938.1842872909 
1660	 20780.437352283 
1661	 20618.8400937589 
1662	 20451.2602835393 
1663	 20277.808868328 
1664	 20095.9401006712 
1665	 19912.655703385 
1666	 19720.0994760188 
1667	 19535.8201005384 
1668	 19349.0064859619 
1669	 19171.6273487547 
1670	 18997.5282890403 
1671	 18837.0181031064 
1672	 18681.7915288751 
1673	 18543.2862238147 
1674	 18419.3362635805 
1675	 18304.0755641686 
1676	 18201.1473639869 
1677	 18104.804645808 
1678	 18018.9724227957 
1679	 17938.4817084546 
1680	 17866.5532247411 
1681	 17797.6245707855 
1682	 17734.7388573127 
1683	 17675.1852750997 
1684	 17620.3639983476 
1685	 17572.5127263746 
1686	 17530.5902932735 
1687	 17493.1646894123 
1688	 17457.6430196632 
1689	 17426.9600378771 
1690	 17395.0814790322 
1691	 17366.3691287451 
1692	 17334.7375764149 
1693	 17299.3950164251 
1694	 17266.5170656796 
1695	 17234.0661390921 
1696	 17201.2560487845 
1697	 17171.0289744733 
1698	 17138.0410506157 
1699	 17101.7785959987 
1700	 17067.3318888475 
1701	 17030.6474168652 
1702	 16998.3725676334 
1703	 16970.1068553471 
1704	 16940.3413356875 
1705	 16912.9944311959 
1706	 16884.0266359535 
1707	 16852.6794222876 
1708	 16823.4006682339 
1709	 16795.738374054 
1710	 16766.5548132903 
1711	 16738.1015804493 
1712	 16707.7130760305 
1713	 16675.399902724 
1714	 16643.5289057399 
1715	 16610.6364444882 
1716	 16578.7788365082 
1717	 16546.1928931713 
1718	 16516.8316639881 
1719	 16490.2366198971 
1720	 16460.4467879353 
1721	 16431.7801539709 
1722	 16400.5219090535 
1723	 16364.9968571612 
1724	 16335.1937350734 
1725	 16306.8021805169 
1726	 16279.7125662791 
1727	 16255.9120954865 
1728	 16232.6980193735 
1729	 16209.1815180807 
1730	 16186.4840600024 
1731	 16162.5400024501 
1732	 16139.4531573473 
1733	 16116.0045965314 
1734	 16093.3235046709 
1735	 16070.537684927 
1736	 16045.370249878 
1737	 16023.4132392549 
1738	 16004.1749207677 
1739	 15983.9508542863 
1740	 15964.7314848593 
1741	 15945.8942339747 
1742	 15925.6873797008 
1743	 15907.9963064104 
1744	 15892.634591262 
1745	 15877.0939953613 
1746	 15861.9754958502 
1747	 15849.478167207 
1748	 15838.3726999413 
1749	 15827.017875612 
1750	 15818.1387638096 
1751	 15806.1183703995 
1752	 15792.3149214793 
1753	 15780.3066447894 
1754	 15769.0964349438 
1755	 15756.9665837451 
1756	 9336.33208230841 
1757	 9469.31735077855 
1758	 9596.43326592036 
1759	 9721.04804384652 
1760	 9835.62765908442 
1761	 9966.66178424688 
1762	 10081.2396813595 
1763	 10192.0384541963 
1764	 10312.6652520187 
1765	 10432.0990018502 
1766	 10553.0402184867 
1767	 10688.519338802 
1768	 10814.8925178534 
1769	 10929.045655579 
1770	 11058.8534404823 
1771	 11197.4569903134 
1772	 11322.5610221565 
1773	 11451.2605577333 
1774	 11592.6600411845 
1775	 11716.7045410694 
1776	 11820.5038699247 
1777	 11938.4105603771 
1778	 12057.4064559514 
1779	 12179.6005923205 
1780	 12296.4183994522 
1781	 12419.9531348594 
1782	 12548.0436206198 
1783	 12675.9814071959 
1784	 12802.3871904424 
1785	 12932.6881939449 
1786	 13065.5381334701 
1787	 13197.1377330763 
1788	 13320.1748745019 
1789	 13439.463451474 
1790	 13560.2031000376 
1791	 13677.713956579 
1792	 13790.0339229912 
1793	 13903.2229594497 
1794	 14019.5922345846 
1795	 14137.3034085189 
1796	 14257.2246246907 
1797	 14386.6101292592 
1798	 14523.7674059509 
1799	 14673.7021969134 
1800	 14801.7144605511 
1801	 14912.7227274242 
1802	 15031.2584905564 
1803	 15132.2103798089 
1804	 15218.0012123682 
1805	 15301.0198219586 
1806	 15380.0556922517 
1807	 15440.4259628046 
1808	 15496.3580136715 
1809	 15545.6489652025 
1810	 15603.9408751603 
1811	 15659.4062026725 
1812	 15702.2276678621 
1813	 15737.4058538699 
1814	 15776.2640126765 
1815	 15796.1201054071 
1816	 15832.0982621635 
1817	 15877.3449768652 
1818	 15928.9292751278 
1819	 15985.2739423869 
1820	 16028.0437809123 
1821	 16063.8601114546 
1822	 16088.9361809914 
1823	 16119.7836522879 
1824	 16149.5050941166 
1825	 16171.1956545149 
1826	 16196.0829287796 
1827	 16210.7769408693 
1828	 16204.8542190656 
1829	 16203.6275720411 
1830	 16213.444030098 
1831	 16223.248189147 
1832	 16243.6608663438 
1833	 16278.3061727526 
1834	 16309.0499990622 
1835	 16332.8079225342 
1836	 16376.0752624235 
1837	 16431.7125725699 
1838	 16489.269104696 
1839	 16564.2515018675 
1840	 16640.3350651419 
1841	 16705.9957283671 
1842	 16762.1318486368 
1843	 16827.6018275329 
1844	 16893.771908459 
1845	 16959.6142407784 
1846	 17037.249075211 
1847	 17101.3692256201 
1848	 17155.098994084 
1849	 17205.9347063425 
1850	 17264.6709481877 
1851	 17323.335152806 
1852	 17384.4859710412 
1853	 17464.9934380698 
1854	 17519.7721246088 
1855	 17569.400397482 
1856	 17598.711854241 
1857	 17614.0466231918 
1858	 17614.1638377582 
1859	 17596.9085428329 
1860	 17583.5605253814 
1861	 17562.1552174342 
1862	 17515.4713539047 
1863	 17471.4660407191 
1864	 17398.7666153177 
1865	 17365.5475547837 
1866	 17331.0565987555 
1867	 17332.1350655416 
1868	 17352.8717275035 
1869	 17414.7119298146 
1870	 17493.4734232017 
1871	 17589.589695654 
1872	 17721.5422871974 
1873	 17859.8197910035 
1874	 18000.0469632083 
1875	 18147.9634862987 
1876	 18273.6781432842 
1877	 18393.6274551192 
1878	 18487.3182015775 
1879	 18553.871986301 
1880	 18599.773743763 
1881	 18630.6829376169 
1882	 18640.3226723934 
1883	 18646.1598539922 
1884	 18640.169117525 
1885	 18606.8350903701 
1886	 18576.2388497337 
1887	 18543.0733485975 
1888	 18508.8060304518 
1889	 18456.7169903254 
1890	 18399.4432225753 
1891	 18326.5082378277 
1892	 18247.3292694451 
1893	 18179.6484100882 
1894	 18122.0825256125 
1895	 18067.1785828005 
1896	 18009.3122710752 
1897	 17952.6399228116 
1898	 17884.9942515321 
1899	 17832.9041180088 
1900	 17784.3428295675 
1901	 17746.1494857771 
1902	 17734.7255062323 
1903	 17739.8458790707 
1904	 17760.1475245949 
1905	 17797.5608787312 
1906	 17815.2938337306 
1907	 17830.4662974702 
1908	 17838.9792887753 
1909	 17830.9433516869 
1910	 17835.8712460618 
1911	 17840.6218609578 
1912	 17847.1204741988 
1913	 17860.6047509352 
1914	 17874.2195314521 
1915	 17879.313322808 
1916	 17888.9069450091 
1917	 17902.6603162376 
1918	 17930.8936515418 
1919	 17961.3155552742 
1920	 18005.0249201387 
1921	 18042.5940688363 
1922	 18080.5369021396 
1923	 18118.7835972155 
1924	 18163.1560940685 
1925	 18200.920077687 
1926	 18241.6614857831 
1927	 18271.4805278452 
1928	 18293.9154996853 
1929	 18303.0577349896 
1930	 18319.3907983637 
1931	 18329.9566447848 
1932	 18345.2221589733 
1933	 18370.8585784602 
1934	 18382.4816622644 
1935	 18389.3250857651 
1936	 18393.073117257 
1937	 18377.7918457867 
1938	 18378.7094879321 
1939	 18387.6605171523 
1940	 18394.2813563156 
1941	 18402.1054613064 
1942	 18420.4438738916 
1943	 18426.6521192487 
1944	 18432.7874357978 
1945	 18423.9989296828 
1946	 18409.3102533144 
1947	 18386.3569230936 
1948	 18339.2697745842 
1949	 18306.5808056191 
1950	 18270.6708905594 
1951	 18243.1263745153 
1952	 18229.6052772245 
1953	 18211.5488112671 
1954	 18184.4120003139 
1955	 18152.8522927988 
1956	 18126.7379228054 
1957	 18091.0432813847 
1958	 18066.1486466071 
1959	 18066.2713357339 
1960	 18035.6602219764 
1961	 17993.6448857134 
1962	 17946.9496628036 
1963	 17876.621192832 
1964	 17815.7648961765 
1965	 17759.264821321 
1966	 17697.1373441229 
1967	 17637.6263284853 
1968	 17580.5188460271 
1969	 17517.6314431083 
1970	 17453.7151229887 
1971	 17386.443975793 
1972	 17314.0763323955 
1973	 17243.4397625619 
1974	 17172.7136080172 
1975	 17098.7226671984 
1976	 17022.6789911233 
1977	 16945.5641502532 
1978	 16866.6378860617 
1979	 16786.0516234862 
1980	 16703.0419052462 
1981	 16619.3959633743 
1982	 16533.3020380079 
1983	 16444.7343135634 
1984	 16353.7255916436 
1985	 16259.2599656067 
1986	 16165.9350957233 
1987	 16063.2451847837 
1988	 15974.1783258863 
1989	 15897.5329911305 
1990	 15814.6559993518 
1991	 15743.0090727577 
1992	 15658.1198797563 
1993	 15563.4944636664 
1994	 15457.5526497344 
1995	 15356.2742913778 
1996	 15244.8610184922 
1997	 15148.704522597 
1998	 15059.1978300535 
1999	 14969.6755727995 
2000	 14892.1301317393 
2001	 14802.1953153826 
2002	 14708.8538312264 
2003	 14612.3176126118 
2004	 14510.9738770915 
2005	 14400.4619563535 
2006	 14302.708813244 
2007	 14215.7207663053 
2008	 14116.9006978046 
2009	 14026.8366259415 
2010	 13928.2969213568 
2011	 13812.0320642841 
2012	 13715.416295913 
2013	 13629.476390309 
2014	 13538.7956699981 
2015	 13454.6416364542 
2016	 13369.0519933352 
2017	 13277.1999005371 
2018	 13192.9114141732 
2019	 13117.3849436672 
2020	 13037.1263242446 
2021	 12957.4109713633 
2022	 12876.6265553317 
2023	 12785.1917604786 
2024	 12691.5425386469 
2025	 12599.0032165277 
2026	 12499.2259400354 
2027	 12410.9125976173 
2028	 12330.5114420272 
2029	 12246.0557715719 
2030	 12160.1697791539 
2031	 12086.0473329781 
2032	 12016.4666747333 
2033	 11943.5876158535 
2034	 11892.1200152505 
2035	 11826.6552351655 
2036	 11752.3811822348 
2037	 11689.5151575917 
2038	 11626.2729680861 
2039	 11564.3574014752 
2040	 11503.2499165407 
2041	 11438.4671659773 
2042	 11371.3364085176 
2043	 11296.0645305294 
2044	 11231.2411378216 
2045	 11164.9167873843 
2046	 11108.9396145858 
2047	 11061.7543150452 
2048	 11014.5189081602 
2049	 10975.9707199392 
2050	 10936.3664957993 
2051	 10884.0103762179 
2052	 10833.5123118745 
2053	 10783.5855970466 
2054	 10731.5106915828 
2055	 10693.1385219654 
2056	 10656.6942973582 
2057	 10614.0059047622 
2058	 10570.2358988489 
2059	 10523.3635142499 
2060	 10472.144804452 
2061	 10424.4328092503 
2062	 10372.7641950577 
2063	 10325.6887065819 
2064	 10284.4710235056 
2065	 10232.4583366683 
2066	 10189.972867397 
2067	 10154.9150559948 
2068	 10119.5220715026 
2069	 10085.1850157562 
2070	 10040.3290490389 
2071	 9989.84865009011 
2072	 9934.27172796373 
2073	 9880.44306200372 
2074	 9828.76783436113 
2075	 9773.20268762883 
2076	 9715.90529274814 
2077	 9653.46936413176 
2078	 9596.16500894416 
2079	 9537.24588357644 
2080	 9484.77749673624 
2081	 9437.8764875489 
2082	 9391.63279569858 
2083	 9346.47245410488 
2084	 9296.01907055528 
2085	 9250.82437297441 
2086	 9197.82727973876 
2087	 9149.11972183545 
2088	 9108.71673072053 
2089	 9056.54369582842 
2090	 9008.51585466939 
2091	 8958.49151476173 
2092	 8909.80950787126 
2093	 8871.47141786879 
2094	 8833.32415317457 
2095	 8785.86402795288 
2096	 8729.88545301815 
2097	 8676.82272749702 
2098	 8619.2394238287 
2099	 8561.57739972997 
2100	 8507.17413981145 
2101	 8464.29746185288 
2102	 8402.60781294988 
2103	 8334.16564882726 
2104	 8277.22962702551 
2105	 8207.1426258748 
2106	 8138.90428487865 
2107	 8086.24112989188 
2108	 8030.03487093309 
2109	 7963.91451402678 
2110	 7894.62596381975 
2111	 7825.11487273604 
2112	 7749.70085665327 
2113	 7686.2018266315 
2114	 7625.53281486718 
2115	 7573.66075391974 
2116	 7513.74112370464 
2117	 7454.68534420177 
2118	 7395.86053073363 
2119	 7330.41178621069 
2120	 7280.73875835956 
2121	 7240.86439114925 
2122	 7185.69618555976 
2123	 7134.68543595127 
2124	 7080.65677103985 
2125	 7020.78068706821 
2126	 6969.18264518445 
2127	 6919.19029811549 
2128	 6887.19235404168 
2129	 6846.13917425366 
2130	 6801.3829716163 
2131	 6766.93755828087 
2132	 6718.833247895 
2133	 6682.24877236448 
2134	 6646.09013539884 
2135	 6612.21834881445 
2136	 6583.74822954363 
2137	 6553.08213117478 
2138	 6525.11986591539 
2139	 6496.88066711906 
2140	 6467.31840325081 
2141	 6430.73406740195 
2142	 6402.9896752772 
2143	 6374.33064034363 
2144	 6352.91132823115 
2145	 6340.95552597356 
2146	 6335.36684982895 
2147	 6331.37112673052 
2148	 6337.5760484456 
2149	 6351.92847178917 
2150	 6370.61597937831 
2151	 6397.38870154746 
2152	 6420.77496080544 
2153	 6451.30173095273 
2154	 6488.77454958747 
2155	 6526.77394941895 
2156	 6565.90145004605 
2157	 6604.66843556281 
2158	 6646.1781590467 
2159	 6683.89844006364 
2160	 6729.05565238893 
2161	 6789.07087476432 
2162	 6833.26953733977 
2163	 6873.21553590908 
2164	 6913.1057715285 
2165	 6935.82059712204 
2166	 6951.58224232374 
2167	 6965.67259821011 
2168	 6971.32906106645 
2169	 6982.84053756385 
2170	 6987.26984742409 
2171	 6994.57876232485 
2172	 7008.77127243176 
2173	 7022.48596501311 
2174	 7057.23362876551 
2175	 7093.26816203172 
2176	 7133.00127061972 
2177	 7179.8767877472 
2178	 7207.2994380807 
2179	 7241.99003585195 
2180	 7281.10006707883 
2181	 7310.29192426564 
2182	 7349.95159708015 
2183	 7376.27729597548 
2184	 7396.55307202216 
2185	 7405.60614644099 
2186	 7400.29193246814 
2187	 7393.73970845467 
2188	 7381.21407646527 
2189	 7365.06906512166 
2190	 7343.80691105729 
2191	 7325.49552360636 
2192	 7299.30633522354 
2193	 7264.28474710085 
2194	 7233.84254288333 
2195	 7205.57834304247 
2196	 7175.5602279595 
2197	 7157.45837224653 
2198	 7143.79697011269 
2199	 7120.92849386642 
2200	 7109.08983560658 
2201	 7095.23007174236 
2202	 7071.3096184534 
2203	 7056.89721089049 
2204	 7043.23596950361 
2205	 7029.4914574903 
2206	 7021.81499576745 
2207	 7022.44836278933 
2208	 7015.34380351086 
2209	 7005.63032080126 
2210	 6999.76463619194 
2211	 6993.49691123092 
2212	 6984.51937208068 
2213	 6981.73306215381 
2214	 6970.61960325445 
2215	 6958.5971872197 
2216	 6938.50954897049 
2217	 6905.80223531622 
2218	 6878.16223854511 
2219	 6849.09682538077 
2220	 6814.33713001518 
2221	 6787.33156025026 
2222	 6750.78143915149 
2223	 6701.18811088715 
2224	 6648.88945142582 
2225	 6587.14424162037 
2226	 6531.88307905857 
2227	 6485.06992576802 
2228	 6438.79580294371 
2229	 6385.34643235249 
2230	 6335.27258020446 
2231	 6289.13304084007 
2232	 6237.44223200458 
2233	 6201.80889722902 
2234	 6173.92885652694 
2235	 6137.72915504337 
2236	 6096.99351249037 
2237	 6062.49641029677 
2238	 6028.79581596908 
2239	 5984.37113082216 
2240	 5946.74748960311 
2241	 5899.12174383895 
2242	 5830.54140046687 
2243	 5780.70703557478 
2244	 5735.03230950476 
2245	 5699.95636380819 
2246	 5682.60092832662 
2247	 5657.67761069462 
2248	 5639.77365675232 
2249	 5614.30855510858 
2250	 5576.65059656725 
2251	 5548.29901699363 
2252	 5525.35150644014 
2253	 5494.96089755598 
2254	 5466.87313087215 
2255	 5439.2400161208 
2256	 5407.11326416124 
2257	 5372.74647046709 
2258	 5354.02903642693 
2259	 5324.36396646337 
2260	 5291.93967526448 
2261	 5266.44280883483 
2262	 5230.18538545037 
2263	 5208.27847149045 
2264	 5189.9020736988 
2265	 5168.74338390634 
2266	 5152.56607985084 
2267	 5116.38139702361 
2268	 5084.5528831856 
2269	 5047.90022094491 
2270	 5001.71151069991 
2271	 4971.18579109636 
2272	 4938.46519030531 
2273	 4906.18404979602 
2274	 4869.67284376743 
2275	 4832.64814512457 
2276	 4795.22497936536 
2277	 4746.95178590946 
2278	 4714.71760307623 
2279	 4680.13652337471 
2280	 4641.5102214587 
2281	 4612.6848679374 
2282	 4574.47145678304 
2283	 4539.25215740842 
2284	 4492.94429210191 
2285	 4449.29775882333 
2286	 4412.26494965712 
2287	 4369.46617279209 
2288	 4342.74060390114 
2289	 4336.77692055345 
2290	 4312.26691660116 
2291	 4292.55216102015 
2292	 4262.7140151275 
2293	 4213.65078455415 
2294	 4182.46473371544 
2295	 4153.26099482704 
2296	 4130.06632513389 
2297	 4124.10955368973 
2298	 4101.68331106759 
2299	 4073.21054778544 
2300	 4048.59380611765 
2301	 4016.06409993593 
2302	 3985.91323982701 
2303	 3960.65246725944 
2304	 3934.09782120423 
2305	 3908.25387073423 
2306	 3880.90968545563 
2307	 3851.7601959852 
2308	 3822.82178318148 
2309	 3792.58130960327 
2310	 3759.18126605149 
2311	 3731.35820408065 
2312	 3709.99235432654 
2313	 3685.33024025825 
2314	 3657.41247454911 
2315	 3634.02053871526 
2316	 3615.94053908544 
2317	 3599.81804722527 
2318	 3575.85116320982 
2319	 3539.3151591193 
2320	 3500.98804520188 
2321	 3456.9944571655 
2322	 3418.45174308169 
2323	 3393.8384965396 
2324	 3358.22753286776 
2325	 3322.63150609502 
2326	 3298.69760375667 
2327	 3265.69024718653 
2328	 3238.1108257104 
2329	 3216.70230707667 
2330	 3173.80583417721 
2331	 3134.75829475536 
2332	 3097.61765343571 
2333	 3050.87934595009 
2334	 3027.24171980942 
2335	 3004.32562861157 
2336	 2979.40503574849 
2337	 2969.33764559483 
2338	 2940.69509896153 
2339	 2903.90226108002 
2340	 2875.69425466955 
2341	 2829.58717346059 
2342	 2790.27545660302 
2343	 2773.0489833859 
2344	 2747.26092974118 
2345	 2725.10664253643 
2346	 2708.31552024759 
2347	 2678.04722804214 
2348	 2645.68688876333 
2349	 2616.17119611573 
2350	 2591.97237098067 
2351	 2574.45830094019 
2352	 2555.40823982225 
2353	 2539.39826844476 
2354	 2517.36144033708 
2355	 2486.73686736858 
2356	 2462.11921011892 
2357	 2441.05921534915 
2358	 2418.01080772924 
2359	 2396.37116917932 
2360	 2374.77984321738 
2361	 2354.0153321613 
2362	 2336.193666759 
2363	 2315.7782896775 
2364	 2293.19531459761 
2365	 2268.19896456148 
2366	 2244.45497123666 
2367	 2229.1535726515 
2368	 2210.36307824866 
2369	 2192.36883419186 
2370	 2172.94803876441 
2371	 2134.75253428458 
2372	 2106.93030064158 
2373	 2081.99765131192 
2374	 2052.37453755657 
2375	 2037.71931857556 
2376	 2024.16433333283 
2377	 2016.28630433665 
2378	 2009.87192198227 
2379	 2001.12445932072 
2380	 1991.08113302026 
2381	 1967.8330539646 
2382	 1940.79543099536 
2383	 1905.1812938384 
2384	 1866.45984736235 
2385	 1833.78070576326 
2386	 1801.90715296965 
2387	 1781.53109402058 
2388	 1755.77889183477 
2389	 1735.8179435587 
2390	 1722.17935055749 
2391	 1703.56367287651 
2392	 1703.2704499149 
2393	 1694.05008270519 
2394	 1679.53903132897 
2395	 1682.34631011461 
2396	 1673.36944123253 
2397	 1663.40947591586 
2398	 1658.82128204018 
2399	 1636.82387712121 
2400	 1613.46319275265 
2401	 1593.9771118658 
2402	 1570.76750665875 
2403	 1540.83831483502 
2404	 1512.93473506608 
2405	 1486.9587405 
2406	 1455.99356856776 
2407	 1453.22689227409 
2408	 1457.66126626646 
2409	 1455.52793272323 
2410	 1468.57992980168 
2411	 1456.528612068 
2412	 1429.78816039583 
2413	 1412.34814740518 
2414	 1385.97737511859 
2415	 1364.6314835316 
2416	 1347.57517969385 
2417	 1329.68570576763 
2418	 1321.4562737973 
2419	 1308.03434847227 
2420	 1294.89984538193 
2421	 1288.04817975129 
2422	 1271.22025286345 
2423	 1265.47094592548 
2424	 1263.51195593268 
2425	 1248.86765064297 
2426	 1228.58968012347 
2427	 1191.37699672922 
2428	 1158.41852157048 
2429	 1139.1049993045 
2430	 1125.69072527139 
2431	 1133.02146094187 
2432	 1135.58793312692 
2433	 1119.32747689296 
2434	 1109.08094043417 
2435	 1090.85559127022 
2436	 1076.60598654604 
2437	 1077.95883148706 
2438	 1074.46820420465 
2439	 1069.05463347636 
2440	 1057.84418962 
2441	 1043.38424133509 
2442	 1030.42244277531 
2443	 1014.48720599627 
2444	 1003.41163973136 
2445	 1001.38986830869 
2446	 992.674736459032 
2447	 986.329661221971 
2448	 977.210868632913 
2449	 954.069762025218 
2450	 941.504537833812 
2451	 927.159961909235 
2452	 913.170694872451 
2453	 904.216078988578 
2454	 887.975684072271 
2455	 879.170474741895 
2456	 870.674291140823 
2457	 869.053499408624 
2458	 866.709217363106 
2459	 857.783230829592 
2460	 860.131143435949 
2461	 852.876834557164 
2462	 849.756448446354 
2463	 847.864682326258 
2464	 826.222432502143 
2465	 822.184383817309 
2466	 810.078897568617 
2467	 801.754874653087 
2468	 788.224789002326 
2469	 763.300238646701 
2470	 755.629852153778 
2471	 738.56654002856 
2472	 731.985525572509 
2473	 727.667826107711 
2474	 716.439559031268 
2475	 712.234578542775 
2476	 704.65070955376 
2477	 710.799437084839 
2478	 712.159380086381 
2479	 713.837844001348 
2480	 724.263184234686 
2481	 718.354402282763 
2482	 715.505995605364 
2483	 709.068307282096 
2484	 693.101995787834 
2485	 678.164137476474 
2486	 655.224772753263 
2487	 640.191075129358 
2488	 631.510786543423 
2489	 622.748643978031 
2490	 620.781308489895 
2491	 610.371541387518 
2492	 585.684888023314 
2493	 553.790629995187 
2494	 527.889852840617 
2495	 513.294076074494 
2496	 514.576317648652 
2497	 531.510663862017 
2498	 538.99760043735 
2499	 537.474270715207 
2500	 527.054487389241 
