Wavelength	1mm_whiteABS00000.asd
350	-1.19947117404281 
351	-0.379403764717627 
352	-0.238891203415448 
353	-3.87637488546466E-02 
354	 0.776000529298776 
355	 0.379053924533994 
356	-1.67006988350068 
357	-0.496925019839739 
358	 0.946956734974349 
359	 1.4314283701347 
360	 1.10790487088548 
361	-0.280795684773147 
362	-0.766978003521465 
363	 0.811096947936556 
364	 0.120652354568718 
365	-0.75117022648529 
366	-0.575770871339512 
367	 0.683296338431369 
368	 0.715375650102092 
369	 5.26913436177776E-02 
370	 9.94047637114076E-02 
371	 0.664594555821569 
372	 1.70690349605979 
373	 2.62284001913721 
374	 1.54491523705522 
375	 0.318904783031438 
376	-0.463105407852484 
377	-0.825628364290544 
378	-1.54424453315251 
379	-0.971064238329005 
380	 1.34645798566452 
381	 1.49492788840973 
382	 0.487436347578296 
383	-0.176822374349576 
384	 1.44767582235718 
385	 0.338432360501835 
386	-0.729361789047784 
387	 1.45611653888418 
388	 2.04545952198344 
389	 2.55006350275057 
390	 3.35893339917294 
391	 2.6351722034242 
392	 2.09320250480889 
393	 2.71386768975363 
394	 4.73408543459241 
395	 3.9770681702223 
396	 3.79732164712466 
397	 6.32980810292592 
398	 8.38435405814451 
399	 9.46401074617554 
400	 10.034995105826 
401	 11.4356561091729 
402	 14.0461081111317 
403	 16.1414079915851 
404	 16.533835689023 
405	 18.8920069383123 
406	 22.4876799752824 
407	 25.889158684319 
408	 26.5084306195665 
409	 29.3632403104304 
410	 33.2457393194631 
411	 34.8673910921827 
412	 39.0188771278129 
413	 43.9212657613847 
414	 47.6861660366559 
415	 50.3378824214137 
416	 54.5024614880919 
417	 59.7559366303731 
418	 62.957061104395 
419	 68.1158326173851 
420	 73.9586867733076 
421	 78.2684601408708 
422	 82.1998422556932 
423	 86.3072497729175 
424	 90.7736829725084 
425	 95.1825803941189 
426	 99.608264559119 
427	 104.554870102463 
428	 110.558929692277 
429	 113.844882514392 
430	 117.395550199941 
431	 123.573972906449 
432	 127.661030640825 
433	 131.0443071032 
434	 134.791604226459 
435	 139.588641833003 
436	 143.381868447992 
437	 146.717108507618 
438	 151.027980817447 
439	 155.869579572186 
440	 159.861284130484 
441	 162.594150750138 
442	 166.636636321007 
443	 169.974439819194 
444	 172.66741904714 
445	 176.606874003321 
446	 180.208682788597 
447	 183.781498021175 
448	 187.936083651925 
449	 191.762591905845 
450	 195.143914720826 
451	 198.103101349246 
452	 200.586642164221 
453	 204.368933882778 
454	 208.627082454516 
455	 210.812788524754 
456	 214.435208444912 
457	 218.457364954873 
458	 221.458548840164 
459	 225.679000304292 
460	 229.881794649104 
461	 233.754013812657 
462	 238.996596603246 
463	 244.502751132477 
464	 249.427720273934 
465	 253.056783097164 
466	 256.704966297592 
467	 261.28286731371 
468	 267.068765469741 
469	 272.259563075295 
470	 277.962695369978 
471	 284.485290273383 
472	 290.905997453397 
473	 296.370439111116 
474	 301.718882611864 
475	 308.590010022178 
476	 316.085780720709 
477	 323.389855079877 
478	 330.087550694533 
479	 337.065215285716 
480	 344.642535199101 
481	 352.835248957115 
482	 361.318958144271 
483	 369.499526120281 
484	 377.531083008822 
485	 385.940772827952 
486	 394.857290775468 
487	 404.339556831739 
488	 414.303900613441 
489	 424.197696460243 
490	 435.128916564734 
491	 446.926535967237 
492	 457.656735881177 
493	 469.384513917041 
494	 481.182268455363 
495	 491.403280880777 
496	 505.083861414022 
497	 519.149734610042 
498	 530.901073850996 
499	 543.047515209079 
500	 555.626974393313 
501	 568.731268880289 
502	 582.602811276689 
503	 596.412353055917 
504	 610.576348387064 
505	 625.970193884592 
506	 642.332023280144 
507	 657.498882302934 
508	 670.452359899237 
509	 684.645037316564 
510	 700.130229119861 
511	 716.913891591711 
512	 735.193178595533 
513	 752.100403047215 
514	 768.719015344422 
515	 787.588600764701 
516	 804.873592471665 
517	 821.643812210475 
518	 839.332443187519 
519	 857.540917914589 
520	 876.655891905747 
521	 896.231339442429 
522	 914.443312846544 
523	 933.477343287849 
524	 952.970068367149 
525	 971.573493172219 
526	 991.504449619112 
527	 1012.63909462578 
528	 1033.87124827458 
529	 1051.77477474469 
530	 1071.08504970039 
531	 1092.76457115587 
532	 1111.27260433036 
533	 1130.7510988325 
534	 1151.50313250466 
535	 1172.00798022219 
536	 1191.48755605963 
537	 1210.51392506729 
538	 1229.79584211556 
539	 1248.91835549326 
540	 1268.67035031191 
541	 1288.82438560189 
542	 1307.09171091941 
543	 1325.14574671072 
544	 1343.33000059211 
545	 1361.31948969287 
546	 1379.47309825093 
547	 1397.82201416467 
548	 1416.34603278765 
549	 1435.43901306101 
550	 1453.61932093633 
551	 1470.20175063735 
552	 1486.19866999448 
553	 1502.01811947998 
554	 1517.7404175327 
555	 1533.15224779665 
556	 1548.65764463614 
557	 1564.30764672182 
558	 1579.84071081683 
559	 1593.82348523251 
560	 1606.99928641564 
561	 1620.05061906789 
562	 1633.48405187019 
563	 1643.31152311576 
564	 1650.14296406979 
565	 1659.0618418275 
566	 1664.74799270348 
567	 1668.19269912777 
568	 1672.05976275325 
569	 1674.33250166629 
570	 1673.77230861301 
571	 1671.02495698055 
572	 1672.42926908616 
573	 1671.45038032023 
574	 1666.96089492492 
575	 1664.26897125551 
576	 1659.97282951175 
577	 1652.95571582596 
578	 1643.20692748646 
579	 1634.34215641439 
580	 1624.70750255352 
581	 1613.22363092912 
582	 1604.20104676035 
583	 1596.95692121824 
584	 1590.49431279784 
585	 1583.55446292072 
586	 1575.09271088642 
587	 1565.80154895317 
588	 1557.47320090135 
589	 1550.48003703424 
590	 1544.40355568408 
591	 1539.25673392917 
592	 1538.4369992051 
593	 1538.47015352583 
594	 1537.56087896324 
595	 1537.34809884286 
596	 1538.81309510809 
597	 1543.4113937301 
598	 1552.83544128799 
599	 1562.56504760322 
600	 1571.42963211841 
601	 1579.72658728945 
602	 1590.30984794351 
603	 1601.77282687387 
604	 1612.92753172897 
605	 1623.93786503374 
606	 1634.66223693529 
607	 1647.14881512632 
608	 1665.70076907331 
609	 1687.55520360641 
610	 1710.47005204601 
611	 1732.64443109165 
612	 1756.59562108658 
613	 1780.35225528764 
614	 1802.36518983317 
615	 1823.83478383866 
616	 1845.24182021508 
617	 1865.85907483973 
618	 1883.12322750178 
619	 1901.70867535242 
620	 1922.32122488514 
621	 1943.83632486751 
622	 1964.65262839261 
623	 1985.55288333029 
624	 2007.41506297189 
625	 2029.90192909165 
626	 2051.09786928873 
627	 2070.90793125645 
628	 2092.36649269716 
629	 2113.28678486486 
630	 2132.62617152445 
631	 2149.91336553133 
632	 2168.38402532588 
633	 2186.1278284681 
634	 2200.95943711469 
635	 2215.53813687195 
636	 2229.94324509953 
637	 2244.00099558291 
638	 2257.22068880011 
639	 2270.95462550097 
640	 2285.08799728429 
641	 2298.44004710315 
642	 2313.86594946555 
643	 2329.76278267814 
644	 2344.00884285091 
645	 2360.48260097105 
646	 2376.96814619205 
647	 2392.24015014223 
648	 2409.03102472208 
649	 2426.01239066087 
650	 2442.5914356798 
651	 2458.67140906347 
652	 2477.6080285235 
653	 2497.74603654369 
654	 2516.08877627029 
655	 2536.48316613412 
656	 2557.08541475007 
657	 2576.37052715556 
658	 2595.88675187511 
659	 2617.11996874395 
660	 2639.98112430391 
661	 2662.3740695526 
662	 2684.72092074881 
663	 2707.08236200576 
664	 2729.49402388589 
665	 2752.30387843724 
666	 2774.63256412899 
667	 2796.58839636438 
668	 2823.2425406102 
669	 2849.65029172453 
670	 2873.90782678372 
671	 2899.19559169794 
672	 2924.68595500169 
673	 2951.03865230707 
674	 2979.50487132121 
675	 3008.4295470678 
676	 3037.14819373832 
677	 3065.92906381841 
678	 3098.76955618843 
679	 3130.15100261271 
680	 3158.1497150923 
681	 3188.57367871231 
682	 3219.32061616295 
683	 3250.33923984093 
684	 3282.68210815135 
685	 3316.47941639204 
686	 3349.55371978161 
687	 3380.24253620922 
688	 3413.94296677688 
689	 3447.90006906671 
690	 3480.44019933423 
691	 3513.82567033522 
692	 3547.12276687355 
693	 3580.08577911034 
694	 3612.95600279239 
695	 3642.89717480122 
696	 3673.59848175327 
697	 3708.98222317268 
698	 3738.46587702001 
699	 3766.52933505941 
700	 3796.3287127422 
701	 3823.14849075105 
702	 3849.57008339624 
703	 3876.83969960487 
704	 3905.18285117563 
705	 3931.62168543491 
706	 3955.00497566604 
707	 3975.5538369272 
708	 3998.58388676002 
709	 4021.15454005701 
710	 4040.90879873 
711	 4060.40086640379 
712	 4079.47557036118 
713	 4098.07449597757 
714	 4116.17669556246 
715	 4134.97579872889 
716	 4153.15092672979 
717	 4168.93269997857 
718	 4187.44922917806 
719	 4205.86714918372 
720	 4221.81659086226 
721	 4238.30795423513 
722	 4254.05521815322 
723	 4268.70173207396 
724	 4282.9700115269 
725	 4297.81334645128 
726	 4313.65585544101 
727	 4330.21591827013 
728	 4342.71122087879 
729	 4355.1574409451 
730	 4370.47471069675 
731	 4382.36865826846 
732	 4397.02403593494 
733	 4414.84361180336 
734	 4428.3720039708 
735	 4440.54150364822 
736	 4452.40185846378 
737	 4464.36605258157 
738	 4474.75996341586 
739	 4483.94991415918 
740	 4492.75933245564 
741	 4502.33421260578 
742	 4511.88538560833 
743	 4520.48240763825 
744	 4526.73702886214 
745	 4534.26876892291 
746	 4542.03650539737 
747	 4547.23031207934 
748	 4552.67617087024 
749	 4557.75884087797 
750	 4561.94214605277 
751	 4567.14062547856 
752	 4570.4196784696 
753	 4571.75151265202 
754	 4575.03805168767 
755	 4577.64998819656 
756	 4578.69266884108 
757	 4577.9271302462 
758	 4576.0340859107 
759	 4571.53268739924 
760	 4564.9779870907 
761	 4564.65024112183 
762	 4564.28088240305 
763	 4562.1920400239 
764	 4562.20301205832 
765	 4561.1230166743 
766	 4559.53821682721 
767	 4558.82798245701 
768	 4554.09701257058 
769	 4548.25772143525 
770	 4543.5334133239 
771	 4537.03417022766 
772	 4530.02863371825 
773	 4522.95282960212 
774	 4515.41493569869 
775	 4509.05495213083 
776	 4502.36814936345 
777	 4493.26771901359 
778	 4484.3109623486 
779	 4475.12941176864 
780	 4465.18899090173 
781	 4454.36390824056 
782	 4442.53828336219 
783	 4429.89321834461 
784	 4416.88330132095 
785	 4404.11233166803 
786	 4391.44546294754 
787	 4378.46054251997 
788	 4364.71473833176 
789	 4350.15086159249 
790	 4335.48124088915 
791	 4323.55860501818 
792	 4308.32796139787 
793	 4290.67187646912 
794	 4275.69165328897 
795	 4258.10093708506 
796	 4239.23959576879 
797	 4221.4247317313 
798	 4204.62800416527 
799	 4187.82492786261 
800	 4170.53967938267 
801	 4153.08557974197 
802	 4136.44522582487 
803	 4120.33576739103 
804	 4103.76633400505 
805	 4085.69851445782 
806	 4067.1740543163 
807	 4048.95542698027 
808	 4029.57769114024 
809	 4010.87173277466 
810	 3992.45425000552 
811	 3971.41281234535 
812	 3952.58957981276 
813	 3934.40380195222 
814	 3913.89232554753 
815	 3894.85245244705 
816	 3875.13149122813 
817	 3854.16279193138 
818	 3836.57624401763 
819	 3817.24534170699 
820	 3795.78266136107 
821	 3774.84716225247 
822	 3752.71531121207 
823	 3730.0739079651 
824	 3708.20856503354 
825	 3688.80090457577 
826	 3669.56799615061 
827	 3649.4908669191 
828	 3629.50099804956 
829	 3609.7074578115 
830	 3588.22938678422 
831	 3562.86313505257 
832	 3537.35023068755 
833	 3511.37364420732 
834	 3485.07190578664 
835	 3460.96069438621 
836	 3440.31919977488 
837	 3422.59699372852 
838	 3405.67474420635 
839	 3391.6024664985 
840	 3378.58646980089 
841	 3364.2429905942 
842	 3348.29986341329 
843	 3330.87417794585 
844	 3311.89803045408 
845	 3290.76814140845 
846	 3269.61644335953 
847	 3249.69471024831 
848	 3231.28943176685 
849	 3209.68586459898 
850	 3187.48678447911 
851	 3166.85153602856 
852	 3146.24544297862 
853	 3126.93077343134 
854	 3108.0791367399 
855	 3087.34375707897 
856	 3065.53243856565 
857	 3044.26545836303 
858	 3024.16117306569 
859	 3000.87329624733 
860	 2976.60235464081 
861	 2953.40405352302 
862	 2933.16373607796 
863	 2910.89884294118 
864	 2887.28791558763 
865	 2864.44838156409 
866	 2839.23771847766 
867	 2814.14957552363 
868	 2790.52305130423 
869	 2766.47454531 
870	 2742.91702940329 
871	 2719.73182129634 
872	 2696.37395116313 
873	 2672.85463806393 
874	 2652.12484787006 
875	 2635.36340102027 
876	 2617.58582383554 
877	 2601.16481303847 
878	 2586.32173503036 
879	 2571.62821959765 
880	 2557.42449435184 
881	 2544.14758240567 
882	 2531.83718326268 
883	 2518.79998704527 
884	 2506.13000192444 
885	 2493.1058919596 
886	 2476.74894666548 
887	 2460.40065414733 
888	 2444.03356354173 
889	 2426.93480473996 
890	 2410.91502940139 
891	 2392.73157293847 
892	 2372.3529304813 
893	 2355.46614929213 
894	 2336.69895673399 
895	 2316.99644958434 
896	 2299.17186323547 
897	 2280.61144483859 
898	 2262.22727537846 
899	 2244.146988349 
900	 2223.85094491983 
901	 2205.65064976759 
902	 2188.77003852535 
903	 2170.1770966561 
904	 2151.23794828874 
905	 2132.27334011206 
906	 2113.45090169835 
907	 2094.92448025212 
908	 2076.09318942482 
909	 2056.93255326418 
910	 2037.6449866889 
911	 2016.34998067319 
912	 1995.85058997544 
913	 1978.00647413277 
914	 1960.41225938187 
915	 1941.94598605707 
916	 1922.79597567652 
917	 1904.12374553523 
918	 1885.8587379817 
919	 1867.88115627985 
920	 1850.08119876401 
921	 1832.39054599425 
922	 1815.84432449437 
923	 1799.5966540784 
924	 1781.61375200727 
925	 1765.21590373012 
926	 1750.23622112691 
927	 1735.59732879632 
928	 1719.7794418915 
929	 1703.14777571561 
930	 1686.03963565867 
931	 1668.82134826731 
932	 1652.0652282655 
933	 1635.49540423288 
934	 1618.81525778034 
935	 1602.19832983248 
936	 1585.77007797647 
937	 1570.31574535545 
938	 1556.78335803389 
939	 1540.68841454697 
940	 1524.0842340642 
941	 1509.01145925701 
942	 1494.14188559045 
943	 1478.48703330804 
944	 1462.04411383958 
945	 1445.62970956668 
946	 1431.1869766143 
947	 1415.94801049823 
948	 1398.96983325905 
949	 1386.08818746479 
950	 1371.22913622533 
951	 1354.85737910806 
952	 1340.54019796562 
953	 1324.70378937987 
954	 1309.55795403574 
955	 1296.24550662067 
956	 1282.42788023407 
957	 1266.95189030026 
958	 1250.39484317759 
959	 1234.17816280938 
960	 1218.46184161538 
961	 1202.70186271893 
962	 1186.83512311785 
963	 1171.71951599716 
964	 1156.98917400341 
965	 1141.92614789635 
966	 1948.7137831077 
967	 1968.46374865784 
968	 1993.15728398726 
969	 2021.61038117241 
970	 2056.84888404147 
971	 2089.331734813 
972	 2124.80125963763 
973	 2157.63047477328 
974	 2189.09322408531 
975	 2223.36858395737 
976	 2259.35349973828 
977	 2292.56588266771 
978	 2326.66873748079 
979	 2359.04666498361 
980	 2390.57425092257 
981	 2423.8175855337 
982	 2455.55154321458 
983	 2485.14159318458 
984	 2508.1913064116 
985	 2526.33579777455 
986	 2548.53630126964 
987	 2570.45501199584 
988	 2592.18151546545 
989	 2616.43672991933 
990	 2639.44572033027 
991	 2660.50264416242 
992	 2682.26082250855 
993	 2705.20330646662 
994	 2726.47369940566 
995	 2747.35391781644 
996	 2763.73847501475 
997	 2780.54416179388 
998	 2801.21859253587 
999	 2821.08216984802 
1000	 2842.24052017753 
1001	 2865.13361980868 
1002	 2883.48204107711 
1003	 2901.63191329858 
1004	 2921.77663121914 
1005	 2941.69924923485 
1006	 2963.38570162347 
1007	 2983.95143039729 
1008	 3004.40037376656 
1009	 3022.31412041417 
1010	 3042.96345484595 
1011	 3058.1224336116 
1012	 3073.5608931276 
1013	 3093.75237195253 
1014	 3110.01229669405 
1015	 3128.45326717914 
1016	 3149.38778682782 
1017	 3166.73186930882 
1018	 3185.12858440733 
1019	 3201.77241830499 
1020	 3215.54508187903 
1021	 3231.30211959474 
1022	 3248.96931350672 
1023	 3265.76892554655 
1024	 3283.27530752839 
1025	 3299.60989809781 
1026	 3317.55221494002 
1027	 3335.47248721343 
1028	 3353.69997707499 
1029	 3376.81164533607 
1030	 3398.2193400389 
1031	 3418.58713098399 
1032	 3438.35148185878 
1033	 3453.4054196911 
1034	 3469.969379114 
1035	 3485.13623109781 
1036	 3498.07603185161 
1037	 3517.06536735588 
1038	 3536.63651076332 
1039	 3555.38191553648 
1040	 3576.34297979009 
1041	 3602.93341639396 
1042	 3622.44339949709 
1043	 3639.32040883775 
1044	 3656.83949932245 
1045	 3671.53693257175 
1046	 3685.4753409485 
1047	 3703.85659660382 
1048	 3723.25378951136 
1049	 3741.627524093 
1050	 3758.91539686683 
1051	 3773.15401318511 
1052	 3788.99148993783 
1053	 3804.98041537062 
1054	 3820.90354614769 
1055	 3838.25309329065 
1056	 3852.83916560141 
1057	 3868.1669766345 
1058	 3882.9800925788 
1059	 3897.23593699116 
1060	 3911.32550743805 
1061	 3925.30941884381 
1062	 3937.67084464927 
1063	 3952.53191297383 
1064	 3964.4174884133 
1065	 3977.66631788316 
1066	 3994.23103336326 
1067	 4007.75873409088 
1068	 4025.32462440673 
1069	 4047.52188475103 
1070	 4067.90201234567 
1071	 4086.64459744189 
1072	 4105.24172813332 
1073	 4121.08945403636 
1074	 4137.78427211698 
1075	 4151.9911390121 
1076	 4169.64801002195 
1077	 4190.11135236409 
1078	 4209.21248314497 
1079	 4228.4428203225 
1080	 4249.22516229676 
1081	 4269.48798565756 
1082	 4290.50225646336 
1083	 4314.43200945604 
1084	 4336.01859500245 
1085	 4355.93226667928 
1086	 4378.8923009082 
1087	 4401.63914401773 
1088	 4424.32890747837 
1089	 4450.46536398978 
1090	 4479.29920249927 
1091	 4507.16481899324 
1092	 4535.92749311954 
1093	 4565.82772362477 
1094	 4595.30968742426 
1095	 4626.65518573781 
1096	 4660.23467971171 
1097	 4694.13313397686 
1098	 4728.28096193032 
1099	 4764.09792072672 
1100	 4800.57556729231 
1101	 4839.46498185204 
1102	 4882.70443769821 
1103	 4923.10605186757 
1104	 4962.56862746455 
1105	 5003.70083076683 
1106	 5044.38077677697 
1107	 5085.91263426685 
1108	 5132.24204947576 
1109	 5176.22691522859 
1110	 5219.76551989053 
1111	 5263.21275427379 
1112	 5305.60736243333 
1113	 5346.78799660272 
1114	 5388.15081833806 
1115	 5428.77253343663 
1116	 5468.82578659037 
1117	 5510.09963640749 
1118	 5548.03122109025 
1119	 5586.55860729192 
1120	 5619.93985163693 
1121	 5650.13561467783 
1122	 5676.59767701058 
1123	 5700.60647096629 
1124	 5718.76549090165 
1125	 5731.789089166 
1126	 5742.19764584263 
1127	 5746.64916859269 
1128	 5745.08166733874 
1129	 5740.77214867492 
1130	 5733.65906311568 
1131	 5719.21749346192 
1132	 5697.97862413831 
1133	 5676.14633001246 
1134	 5645.53543404705 
1135	 5621.61788280527 
1136	 5594.678152383 
1137	 5577.07397244161 
1138	 5560.82498408645 
1139	 5554.66182025265 
1140	 5555.2613114334 
1141	 5564.32325498673 
1142	 5577.28357646886 
1143	 5604.9249382583 
1144	 5639.49720260896 
1145	 5690.64384875413 
1146	 5760.36523817651 
1147	 5837.09814153252 
1148	 5924.54608118624 
1149	 6026.25168927296 
1150	 6131.55141461958 
1151	 6248.0085079776 
1152	 6360.96708535569 
1153	 6482.66531374549 
1154	 6596.76730842786 
1155	 6709.40547612731 
1156	 6819.15286061393 
1157	 6928.81467733281 
1158	 7032.11371363248 
1159	 7136.53340563118 
1160	 7226.46091321237 
1161	 7308.09925992084 
1162	 7382.40656082195 
1163	 7445.47133260133 
1164	 7502.9649539072 
1165	 7552.3013787479 
1166	 7598.00199181794 
1167	 7637.45392811225 
1168	 7670.37657726791 
1169	 7699.05813085346 
1170	 7728.60792965436 
1171	 7754.28685033479 
1172	 7776.56457253522 
1173	 7794.89345167997 
1174	 7811.02541011245 
1175	 7822.73005216548 
1176	 7827.93820042051 
1177	 7834.85046283834 
1178	 7841.26207152834 
1179	 7844.46646384881 
1180	 7846.90817517015 
1181	 7844.10406488433 
1182	 7840.88959691225 
1183	 7827.98522475018 
1184	 7805.4279793941 
1185	 7784.54376036615 
1186	 7756.11803002377 
1187	 7729.60305586395 
1188	 7702.63978829594 
1189	 7678.11889324767 
1190	 7654.49040614767 
1191	 7629.06989597159 
1192	 7607.0984428437 
1193	 7586.71315055839 
1194	 7566.61194178588 
1195	 7548.21220094081 
1196	 7533.38556856906 
1197	 7521.72693994486 
1198	 7513.39505245964 
1199	 7506.25071427798 
1200	 7505.17693742247 
1201	 7509.14249513608 
1202	 7515.0549113857 
1203	 7524.18889699947 
1204	 7538.48997653136 
1205	 7556.96009503812 
1206	 7577.84750660963 
1207	 7603.23549080905 
1208	 7631.6274857299 
1209	 7662.03998920625 
1210	 7696.10222358293 
1211	 7734.0257679912 
1212	 7776.68050012462 
1213	 7818.32379862424 
1214	 7863.26997200296 
1215	 7910.66532823057 
1216	 7956.07389482499 
1217	 8004.01893713532 
1218	 8053.69284350111 
1219	 8102.90928173418 
1220	 8153.92363334401 
1221	 8205.36371434028 
1222	 8258.9085560894 
1223	 8310.23592881373 
1224	 8360.29957538205 
1225	 8411.85833839285 
1226	 8463.79926849427 
1227	 8514.92691153775 
1228	 8568.29461718926 
1229	 8619.06029252527 
1230	 8668.92838412463 
1231	 8715.04208829948 
1232	 8757.72380052179 
1233	 8800.49094588804 
1234	 8840.59154879737 
1235	 8881.6488948291 
1236	 8923.74946434217 
1237	 8963.71867288257 
1238	 9003.35746901376 
1239	 9041.35691962943 
1240	 9077.57419820578 
1241	 9111.74766851374 
1242	 9143.66362801711 
1243	 9173.96363821104 
1244	 9205.28334347336 
1245	 9239.32735418382 
1246	 9274.20602931744 
1247	 9305.59635938004 
1248	 9331.82811532389 
1249	 9357.35644410385 
1250	 9383.38107521581 
1251	 9408.16109324467 
1252	 9431.68590089471 
1253	 9454.32027277619 
1254	 9477.56033508646 
1255	 9499.67782859675 
1256	 9522.35026714967 
1257	 9546.97490513113 
1258	 9570.84198707876 
1259	 9593.13062851609 
1260	 9614.66888868532 
1261	 9635.89130626476 
1262	 9658.29989045573 
1263	 9678.66891600278 
1264	 9699.89216103572 
1265	 9721.70365220737 
1266	 9739.51675288215 
1267	 9753.41037357867 
1268	 9763.649556356 
1269	 9773.4363343975 
1270	 9783.55867534333 
1271	 9792.64210072651 
1272	 9800.75584708128 
1273	 9806.24840570126 
1274	 9808.63120177737 
1275	 9808.194391523 
1276	 9807.96427195525 
1277	 9805.53045208244 
1278	 9797.61327979297 
1279	 9789.79015562078 
1280	 9781.41327586799 
1281	 9769.69896671695 
1282	 9756.51304570615 
1283	 9741.12297478123 
1284	 9719.67916566297 
1285	 9702.34035102405 
1286	 9684.48353563874 
1287	 9667.48561706159 
1288	 9653.26857242135 
1289	 9639.04630989165 
1290	 9617.90622946326 
1291	 9597.25216173794 
1292	 9575.66788930535 
1293	 9554.33618408474 
1294	 9540.52480257319 
1295	 9530.77263494308 
1296	 9523.92171495794 
1297	 9518.39682399773 
1298	 9514.16174561832 
1299	 9512.01428828158 
1300	 9509.77253154585 
1301	 9510.11602713099 
1302	 9512.59861643016 
1303	 9515.75571776444 
1304	 9520.94648382397 
1305	 9531.3403897614 
1306	 9544.96795333161 
1307	 9555.75493016848 
1308	 9566.17202179223 
1309	 9577.09381387412 
1310	 9585.68488016517 
1311	 9594.91085852837 
1312	 9605.31142793678 
1313	 9616.95276396924 
1314	 9627.75509204437 
1315	 9640.31597244826 
1316	 9650.44032841527 
1317	 9659.2024953378 
1318	 9668.20166210598 
1319	 9675.01591874123 
1320	 9683.02603571684 
1321	 9695.14269980528 
1322	 9712.63961520668 
1323	 9734.62106613105 
1324	 9755.83493281982 
1325	 9778.4364946922 
1326	 9799.42324035809 
1327	 9819.43352259993 
1328	 9843.7089134052 
1329	 9870.34975503789 
1330	 9898.09770456791 
1331	 9926.70243870101 
1332	 9956.53846452323 
1333	 9985.19022068955 
1334	 10015.224473552 
1335	 10049.5939346832 
1336	 10082.6806011388 
1337	 10119.17153418 
1338	 10159.423331304 
1339	 10194.937296726 
1340	 10230.0509102428 
1341	 10267.3486062068 
1342	 10301.411352167 
1343	 10334.0637862933 
1344	 10367.5336927816 
1345	 10398.4388804647 
1346	 10426.2754467643 
1347	 10451.7284669093 
1348	 10475.0037517506 
1349	 10497.6607550946 
1350	 10519.4451968382 
1351	 10535.8739404457 
1352	 10550.4628449433 
1353	 10561.2470458313 
1354	 10567.0418190765 
1355	 10569.6676936129 
1356	 10571.3779562334 
1357	 10571.850609761 
1358	 10569.6476594819 
1359	 10568.9789283797 
1360	 10570.2018319963 
1361	 10573.8422301857 
1362	 10580.4469156381 
1363	 10587.9446745873 
1364	 10600.00536937 
1365	 10613.5773909035 
1366	 10627.6138431247 
1367	 10645.4869558576 
1368	 10664.1308573133 
1369	 10677.6242601155 
1370	 10691.5953129281 
1371	 10699.5295882877 
1372	 10696.0663796328 
1373	 10687.7138137645 
1374	 10665.8674546322 
1375	 10631.1933488478 
1376	 10587.9942988457 
1377	 10537.6334359352 
1378	 10481.7460561193 
1379	 10425.4788314 
1380	 10366.3073243551 
1381	 10303.5625816361 
1382	 10243.0467180239 
1383	 10187.1788525525 
1384	 10141.315570144 
1385	 10102.5967560299 
1386	 10073.6544355312 
1387	 10051.3356787281 
1388	 10030.6667178139 
1389	 10016.9026083822 
1390	 10009.4039757986 
1391	 10008.4860867116 
1392	 10010.0366326751 
1393	 10019.1345115316 
1394	 10028.2279138911 
1395	 10039.3570819284 
1396	 10052.2465377515 
1397	 10066.0875217982 
1398	 10079.31402245 
1399	 10094.1607173531 
1400	 10108.1092462536 
1401	 10120.2089170773 
1402	 10130.6378180508 
1403	 10136.7860016755 
1404	 10139.0759660224 
1405	 10139.1001914715 
1406	 10139.264410982 
1407	 10139.4636883155 
1408	 10140.2918211921 
1409	 10143.0794175226 
1410	 10151.5438873103 
1411	 10163.9678904217 
1412	 10179.8830768032 
1413	 10202.4304833781 
1414	 10225.332837931 
1415	 10249.9065812416 
1416	 10277.2162036409 
1417	 10307.4099967227 
1418	 10339.5118415028 
1419	 10370.199388416 
1420	 10401.5434156181 
1421	 10430.4585320941 
1422	 10456.7769244031 
1423	 10483.1736870726 
1424	 10508.0500594014 
1425	 10527.7109007287 
1426	 10543.8648646201 
1427	 10560.9441613012 
1428	 10575.5155475474 
1429	 10586.4643995942 
1430	 10600.2872360449 
1431	 10613.459144674 
1432	 10621.252184763 
1433	 10632.5243900165 
1434	 10643.8452233818 
1435	 10651.6166013875 
1436	 10664.7901293783 
1437	 10678.1280372996 
1438	 10690.6328868475 
1439	 10705.6380734099 
1440	 10716.5942775789 
1441	 10730.406881726 
1442	 10746.8851170338 
1443	 10760.8638507149 
1444	 10780.2911414374 
1445	 10798.8757062602 
1446	 10816.6305900386 
1447	 10835.1257078572 
1448	 10855.9984331036 
1449	 10872.7631441172 
1450	 10887.417335059 
1451	 10902.8557092016 
1452	 10917.2273605288 
1453	 10931.2985285188 
1454	 10944.9819327536 
1455	 10957.8957163722 
1456	 10967.5032702319 
1457	 10974.9886578946 
1458	 10977.7208634812 
1459	 10975.9210366789 
1460	 10973.4372863549 
1461	 10967.3085851466 
1462	 10961.0065785515 
1463	 10957.8448661585 
1464	 10951.4514480654 
1465	 10941.7622915192 
1466	 10934.3960246588 
1467	 10928.0133737359 
1468	 10919.6479416656 
1469	 10912.5828872173 
1470	 10904.8469701627 
1471	 10895.9145601135 
1472	 10888.9408968228 
1473	 10884.8526123915 
1474	 10884.4937693429 
1475	 10882.5554380943 
1476	 10881.1853406332 
1477	 10880.0071740226 
1478	 10874.430329171 
1479	 10870.1161804058 
1480	 10866.3748453243 
1481	 10862.3110798571 
1482	 10859.5392161834 
1483	 10856.800763104 
1484	 10853.8092839355 
1485	 10847.6156116118 
1486	 10841.9874452433 
1487	 10838.3478454715 
1488	 10834.0461955322 
1489	 10833.9261443045 
1490	 10835.2140176081 
1491	 10835.3259141518 
1492	 10837.0541772112 
1493	 10838.7040505939 
1494	 10840.8352862869 
1495	 10845.7408543914 
1496	 10852.3777265668 
1497	 10854.7175275814 
1498	 10854.9244542655 
1499	 10853.8772463181 
1500	 10848.9079610086 
1501	 10846.8841771892 
1502	 10845.2097733212 
1503	 10842.2079698958 
1504	 10837.5238076824 
1505	 10829.5021804471 
1506	 10823.3284101064 
1507	 10817.968966919 
1508	 10811.6159380808 
1509	 10805.8807641885 
1510	 10796.7183202051 
1511	 10785.9885497309 
1512	 10779.2348745495 
1513	 10772.6928325773 
1514	 10768.7465416823 
1515	 10767.0712445621 
1516	 10761.853222968 
1517	 10755.2032290804 
1518	 10752.7270614452 
1519	 10746.9209372162 
1520	 10738.5619787949 
1521	 10734.8998608858 
1522	 10724.3857184011 
1523	 10715.6351604179 
1524	 10710.5111191502 
1525	 10700.8855466969 
1526	 10695.0116966597 
1527	 10685.9669582416 
1528	 10673.1823792812 
1529	 10662.0017710514 
1530	 10650.2471546357 
1531	 10640.1420170456 
1532	 10631.3348138053 
1533	 10622.8709573531 
1534	 10611.8930416008 
1535	 10599.1238682325 
1536	 10586.3630239908 
1537	 10572.2020549158 
1538	 10561.0094475625 
1539	 10551.9860944919 
1540	 10542.3041670314 
1541	 10533.6281576644 
1542	 10523.5283255909 
1543	 10511.2835559598 
1544	 10499.1704725216 
1545	 10487.595499063 
1546	 10476.1886714774 
1547	 10464.8314028625 
1548	 10453.2593287953 
1549	 10440.2239210797 
1550	 10425.2731286757 
1551	 10408.4498328749 
1552	 10392.3330343623 
1553	 10377.1725389197 
1554	 10359.6222774521 
1555	 10341.8186905267 
1556	 10324.0842464403 
1557	 10302.214902126 
1558	 10281.0315522012 
1559	 10261.4551282574 
1560	 10239.7276423891 
1561	 10217.1327138776 
1562	 10194.3345259807 
1563	 10172.0915778278 
1564	 10146.464855605 
1565	 10119.081381273 
1566	 10091.3338271725 
1567	 10060.2613185385 
1568	 10026.7021187215 
1569	 9996.17616839452 
1570	 9966.54338063205 
1571	 9935.84409223068 
1572	 9909.78220059381 
1573	 9882.14803952269 
1574	 9852.31945556583 
1575	 9825.70162353231 
1576	 9796.7063215901 
1577	 9765.75182275684 
1578	 9740.97570471918 
1579	 9714.79982758624 
1580	 9688.9614783375 
1581	 9666.41186733161 
1582	 9640.07517817217 
1583	 9613.15112869351 
1584	 9584.17887438894 
1585	 9555.65200405546 
1586	 9526.09187186113 
1587	 9494.8200664621 
1588	 9466.14998265831 
1589	 9434.57574556816 
1590	 9403.10482622825 
1591	 9373.40780599041 
1592	 9337.70959220535 
1593	 9299.74824601506 
1594	 9262.96903314439 
1595	 9224.11201186866 
1596	 9188.64248224565 
1597	 9152.7704397914 
1598	 9110.63979042991 
1599	 9066.71541005652 
1600	 9018.65636435641 
1601	 8970.48186696477 
1602	 8926.30225691409 
1603	 8879.64507132868 
1604	 8832.1465249073 
1605	 8785.08923577035 
1606	 8734.78039263393 
1607	 8682.73320969726 
1608	 8629.39161616856 
1609	 8571.67913742841 
1610	 8508.99949351044 
1611	 8439.92856641648 
1612	 8364.75023719591 
1613	 8283.83469199421 
1614	 8198.77665770531 
1615	 8110.2535464797 
1616	 8012.1352883725 
1617	 7906.73065187835 
1618	 7794.60447123399 
1619	 7675.28481928761 
1620	 7553.95232614749 
1621	 7424.61234159782 
1622	 7285.48692805103 
1623	 7143.05818198737 
1624	 6992.47647161117 
1625	 6839.63688001581 
1626	 6687.57186774038 
1627	 6536.29349662941 
1628	 6391.08614091275 
1629	 6251.1315724771 
1630	 6115.64186174452 
1631	 5988.066307521 
1632	 5871.35790792779 
1633	 5766.10093686764 
1634	 5674.90360212031 
1635	 5593.01191538854 
1636	 5518.16684154294 
1637	 5457.64689806076 
1638	 5413.25806045631 
1639	 5374.61935581564 
1640	 5349.15990714603 
1641	 5326.89261096847 
1642	 5312.9184811768 
1643	 5299.58181982156 
1644	 5295.6063042751 
1645	 5283.65104338119 
1646	 5275.54153285972 
1647	 5254.07242097317 
1648	 5228.98165498066 
1649	 5187.92979792142 
1650	 5137.49420750379 
1651	 5069.50388200172 
1652	 4988.89182805792 
1653	 4888.97734593427 
1654	 4771.87683207022 
1655	 4638.68324966478 
1656	 4483.40186924053 
1657	 4321.67949785839 
1658	 4142.40089172259 
1659	 3962.24782719272 
1660	 3769.79449674952 
1661	 3584.63129695911 
1662	 3395.14599495378 
1663	 3213.44330835685 
1664	 3032.59586195371 
1665	 2863.80138828873 
1666	 2699.00567884169 
1667	 2548.7423079292 
1668	 2408.5735217498 
1669	 2283.48889245247 
1670	 2171.10010011019 
1671	 2069.65693555061 
1672	 1982.29756540928 
1673	 1904.76410512063 
1674	 1836.2574185376 
1675	 1782.59560216707 
1676	 1743.63029244821 
1677	 1710.95269155964 
1678	 1689.92779037314 
1679	 1675.9821545962 
1680	 1671.06612195902 
1681	 1670.65280469301 
1682	 1678.98860490723 
1683	 1691.40345750999 
1684	 1707.92504388973 
1685	 1729.14255007322 
1686	 1751.46468330325 
1687	 1774.33046504666 
1688	 1795.40681620311 
1689	 1814.15612189576 
1690	 1835.54494359754 
1691	 1857.58273780994 
1692	 1879.32000318671 
1693	 1903.52305114659 
1694	 1926.6646612152 
1695	 1946.79903409709 
1696	 1969.80376114059 
1697	 1994.07032080508 
1698	 2019.70432362406 
1699	 2048.52920541535 
1700	 2075.49907126982 
1701	 2102.56013708825 
1702	 2129.36271439616 
1703	 2156.93406611891 
1704	 2181.03752947057 
1705	 2204.77888219013 
1706	 2225.17360384083 
1707	 2240.07159327711 
1708	 2257.4524370016 
1709	 2273.46121138827 
1710	 2291.50697707251 
1711	 2312.69312191383 
1712	 2329.49376182023 
1713	 2346.05450708073 
1714	 2359.45701328389 
1715	 2368.86047962219 
1716	 2378.93338313113 
1717	 2387.51923640235 
1718	 2396.81286443471 
1719	 2405.66340608036 
1720	 2414.51242369748 
1721	 2422.98788248081 
1722	 2433.31758916074 
1723	 2442.78953518129 
1724	 2457.22013983047 
1725	 2474.25475628212 
1726	 2493.95069413468 
1727	 2516.83189719139 
1728	 2545.33767667283 
1729	 2574.30628291514 
1730	 2604.91940432699 
1731	 2636.832840105 
1732	 2668.06391976118 
1733	 2697.04025231566 
1734	 2729.06010697335 
1735	 2753.25138844256 
1736	 2776.11314106367 
1737	 2788.04570337275 
1738	 2792.19339188399 
1739	 2788.68935015045 
1740	 2775.07964378139 
1741	 2756.07387551456 
1742	 2728.26582311127 
1743	 2698.76589739945 
1744	 2663.45163147909 
1745	 2625.70978992504 
1746	 2583.15363782399 
1747	 2542.63164511341 
1748	 2497.48052153305 
1749	 2459.03087095256 
1750	 2421.59146042029 
1751	 2393.07414766922 
1752	 2368.79599596105 
1753	 2351.93154799127 
1754	 2342.49869447168 
1755	 2339.06309224137 
1756	 1287.24226268165 
1757	 1321.42683759061 
1758	 1349.41927976845 
1759	 1385.26996900378 
1760	 1430.99392477919 
1761	 1460.96530683563 
1762	 1493.19907096342 
1763	 1535.4116334033 
1764	 1574.08483562353 
1765	 1611.78473577772 
1766	 1648.97505024003 
1767	 1681.75020694411 
1768	 1722.51171807365 
1769	 1767.91441389603 
1770	 1809.23022769277 
1771	 1853.46672790188 
1772	 1913.05595957382 
1773	 1951.77885360444 
1774	 1970.47577788378 
1775	 2006.30305839708 
1776	 2046.82151732129 
1777	 2077.48632143527 
1778	 2109.94237032452 
1779	 2147.09829973205 
1780	 2166.18341474203 
1781	 2188.85915443291 
1782	 2219.97918923099 
1783	 2246.0750405494 
1784	 2277.90020932127 
1785	 2313.66941789097 
1786	 2344.66993659692 
1787	 2383.73355286518 
1788	 2426.2026217461 
1789	 2449.8696039413 
1790	 2473.7997792382 
1791	 2495.07949708212 
1792	 2517.51429046886 
1793	 2554.24735039508 
1794	 2585.99199781016 
1795	 2617.10975211453 
1796	 2652.64082661654 
1797	 2696.00569474463 
1798	 2730.1345713729 
1799	 2766.59288920124 
1800	 2793.61406697545 
1801	 2808.49631374141 
1802	 2831.05829170988 
1803	 2859.43406819846 
1804	 2901.39923209309 
1805	 2930.39127114478 
1806	 2962.73378185367 
1807	 2986.03101497329 
1808	 2993.07959159012 
1809	 2989.95085001139 
1810	 2991.92679964414 
1811	 3002.14193292866 
1812	 3018.66416937076 
1813	 3052.74499411093 
1814	 3074.72579242225 
1815	 3097.05211318689 
1816	 3115.92088077918 
1817	 3133.27790479538 
1818	 3139.16724502784 
1819	 3157.58668777769 
1820	 3168.85528024514 
1821	 3180.27016322169 
1822	 3191.76019853229 
1823	 3201.4371102247 
1824	 3203.61468630913 
1825	 3214.32120572558 
1826	 3231.48289567374 
1827	 3242.1459034884 
1828	 3255.73104416099 
1829	 3266.92299014975 
1830	 3271.71470572592 
1831	 3264.98227120014 
1832	 3268.72882823115 
1833	 3267.64980534319 
1834	 3278.66303952698 
1835	 3310.79370804014 
1836	 3321.8575383828 
1837	 3325.45812796405 
1838	 3334.23759938965 
1839	 3342.5218608798 
1840	 3327.04509109207 
1841	 3336.30368408395 
1842	 3359.93112904398 
1843	 3378.84197175202 
1844	 3404.49610615024 
1845	 3426.18144034828 
1846	 3450.8523787474 
1847	 3470.40734661037 
1848	 3486.3744813516 
1849	 3499.58929232508 
1850	 3518.54469155983 
1851	 3526.42140288642 
1852	 3537.82677619535 
1853	 3549.19881535245 
1854	 3560.86140581441 
1855	 3574.09651787985 
1856	 3585.68222903322 
1857	 3598.3601559356 
1858	 3607.277447175 
1859	 3609.72839296705 
1860	 3608.22455760763 
1861	 3619.42705412058 
1862	 3633.04275545403 
1863	 3643.70665035435 
1864	 3657.50018603618 
1865	 3670.81362304704 
1866	 3674.66291762767 
1867	 3692.82929512488 
1868	 3723.29143161402 
1869	 3753.93350493579 
1870	 3775.27992660951 
1871	 3800.22470679311 
1872	 3817.09040170691 
1873	 3855.78862856395 
1874	 3907.47209662509 
1875	 3950.58279481799 
1876	 3979.96852853201 
1877	 4004.37627525618 
1878	 4009.81690851824 
1879	 4013.34287927428 
1880	 4010.24599837822 
1881	 4017.80700027775 
1882	 4025.41967220552 
1883	 4024.18914531961 
1884	 4014.5248017547 
1885	 3988.79478050251 
1886	 3971.73900963986 
1887	 3945.36895953941 
1888	 3909.26238931618 
1889	 3869.720313728 
1890	 3835.94628319642 
1891	 3788.1482078549 
1892	 3743.39492237312 
1893	 3699.47744757509 
1894	 3665.52873315385 
1895	 3628.54676566554 
1896	 3587.82922440277 
1897	 3566.37433564266 
1898	 3564.59859399947 
1899	 3550.80676241124 
1900	 3539.79699263917 
1901	 3540.31534139847 
1902	 3531.59056802507 
1903	 3517.6897932734 
1904	 3521.46550212816 
1905	 3532.38672678644 
1906	 3541.16782553302 
1907	 3566.76110021533 
1908	 3595.6705390922 
1909	 3638.61979203235 
1910	 3669.98396589744 
1911	 3710.87406702653 
1912	 3734.85129594302 
1913	 3744.75770539529 
1914	 3749.28763320231 
1915	 3766.69239982594 
1916	 3785.68569032864 
1917	 3821.75238907786 
1918	 3867.50625889492 
1919	 3897.33236876949 
1920	 3928.97263327366 
1921	 3942.81594651882 
1922	 3931.06276264174 
1923	 3938.39418789673 
1924	 3949.72907196272 
1925	 3952.68229487129 
1926	 3962.03844446099 
1927	 3971.63646267822 
1928	 3946.76618766827 
1929	 3915.52735288145 
1930	 3895.82741514402 
1931	 3867.54089166175 
1932	 3851.28145283774 
1933	 3849.93612759019 
1934	 3841.88185802174 
1935	 3834.13938047302 
1936	 3827.78059116544 
1937	 3820.2562263509 
1938	 3815.21696142613 
1939	 3806.70574267413 
1940	 3810.08076494153 
1941	 3813.54698274679 
1942	 3816.02121791195 
1943	 3832.96513434209 
1944	 3857.99415780315 
1945	 3885.90348449971 
1946	 3934.7467247154 
1947	 3964.40214641339 
1948	 3984.27801372615 
1949	 4010.79023493591 
1950	 4029.24300419627 
1951	 4053.87095546466 
1952	 4085.225323169 
1953	 4121.3235503683 
1954	 4151.51626633641 
1955	 4185.35344828332 
1956	 4205.88451122447 
1957	 4221.64160237516 
1958	 4231.50707101415 
1959	 4226.96683230517 
1960	 4229.33368954119 
1961	 4231.08660297861 
1962	 4231.99400149961 
1963	 4237.74118876903 
1964	 4235.40657746525 
1965	 4219.58007944589 
1966	 4217.23767828509 
1967	 4209.51759738619 
1968	 4197.51729731312 
1969	 4188.00377667141 
1970	 4186.67584514849 
1971	 4171.52335944835 
1972	 4141.55390678995 
1973	 4127.19387242693 
1974	 4111.48727457869 
1975	 4100.78543274263 
1976	 4110.16713037143 
1977	 4104.88437550468 
1978	 4091.84400380942 
1979	 4077.73299865795 
1980	 4063.21520682267 
1981	 4041.49547459214 
1982	 4025.70685570271 
1983	 4014.77952840615 
1984	 3998.15987278517 
1985	 3986.12071218926 
1986	 3962.32932794737 
1987	 3924.75971075673 
1988	 3897.06488800484 
1989	 3859.22877448828 
1990	 3834.10902163716 
1991	 3821.22305557049 
1992	 3812.46266773676 
1993	 3798.98930595876 
1994	 3783.6740440235 
1995	 3760.9177013925 
1996	 3725.83557273215 
1997	 3700.54881674326 
1998	 3677.71327042196 
1999	 3650.91874677511 
2000	 3628.00006231853 
2001	 3599.60427866898 
2002	 3558.78423917443 
2003	 3529.4192586897 
2004	 3502.40165104152 
2005	 3479.23057364996 
2006	 3466.34459095317 
2007	 3448.13160006266 
2008	 3427.55447568713 
2009	 3402.58960180037 
2010	 3376.13774696023 
2011	 3341.7994904874 
2012	 3315.6790113115 
2013	 3293.43626791106 
2014	 3268.95106293816 
2015	 3243.86826134279 
2016	 3222.18360572973 
2017	 3197.06790602267 
2018	 3179.11600373861 
2019	 3168.61861387353 
2020	 3159.20083460753 
2021	 3150.85899710117 
2022	 3141.27290453187 
2023	 3118.90439409017 
2024	 3099.39861224097 
2025	 3077.59231653934 
2026	 3047.92367318029 
2027	 3025.900822756 
2028	 3007.49868605215 
2029	 2986.94889294699 
2030	 2968.07034492811 
2031	 2951.92832459189 
2032	 2934.65843147743 
2033	 2920.30032870734 
2034	 2918.19977911457 
2035	 2901.44230249835 
2036	 2889.14642428951 
2037	 2877.21555162205 
2038	 2845.27844638678 
2039	 2820.03628074978 
2040	 2801.74363497141 
2041	 2779.16047458716 
2042	 2761.17348888592 
2043	 2757.71626489317 
2044	 2744.43595017078 
2045	 2721.60214971632 
2046	 2705.89893857977 
2047	 2690.7126257604 
2048	 2673.15194352303 
2049	 2655.25361880853 
2050	 2644.9928561516 
2051	 2625.14271107609 
2052	 2614.35527701137 
2053	 2613.94892607473 
2054	 2615.3874768965 
2055	 2610.00687149222 
2056	 2609.95801792767 
2057	 2596.05849065322 
2058	 2572.61728404396 
2059	 2561.22596801874 
2060	 2553.92197742416 
2061	 2543.43747618728 
2062	 2544.84811548871 
2063	 2533.19911310323 
2064	 2505.88237856588 
2065	 2499.93042516886 
2066	 2489.74676736965 
2067	 2476.60006694195 
2068	 2487.62244396296 
2069	 2478.06332451366 
2070	 2464.85268143152 
2071	 2464.10433788666 
2072	 2442.81624239483 
2073	 2432.62547978413 
2074	 2428.80092567952 
2075	 2405.64816949802 
2076	 2389.64003670879 
2077	 2376.24289091511 
2078	 2361.15742734912 
2079	 2346.30090146786 
2080	 2332.65717197627 
2081	 2324.82432057664 
2082	 2300.57555477258 
2083	 2271.89600463251 
2084	 2247.01016947959 
2085	 2211.79508632499 
2086	 2190.18472917698 
2087	 2181.26024883984 
2088	 2170.71562559173 
2089	 2165.17859496097 
2090	 2154.48334940018 
2091	 2139.67291707027 
2092	 2117.64453337315 
2093	 2090.02131632819 
2094	 2066.5908507937 
2095	 2036.62745265045 
2096	 1998.00571081345 
2097	 1966.95058001836 
2098	 1934.27809616183 
2099	 1904.32788891664 
2100	 1890.51713895748 
2101	 1878.91875199837 
2102	 1875.87594320755 
2103	 1861.53794694951 
2104	 1833.62870223875 
2105	 1806.74538202457 
2106	 1766.0727734098 
2107	 1734.20711655642 
2108	 1704.9010727408 
2109	 1662.60097903118 
2110	 1627.28181544236 
2111	 1581.37362999802 
2112	 1531.32672329496 
2113	 1490.88277067072 
2114	 1450.49792277599 
2115	 1410.79522225551 
2116	 1375.35825290307 
2117	 1344.60148847623 
2118	 1311.8873508024 
2119	 1281.41745123387 
2120	 1246.07032243141 
2121	 1213.56248751019 
2122	 1182.55961314876 
2123	 1148.38833227249 
2124	 1120.43810994402 
2125	 1090.68705579581 
2126	 1053.05835737655 
2127	 1020.89072143399 
2128	 982.153387209742 
2129	 926.743987135083 
2130	 874.96874005924 
2131	 813.619978969895 
2132	 745.736600361953 
2133	 698.668004892264 
2134	 657.878590391765 
2135	 615.539688112453 
2136	 580.168130593915 
2137	 547.333035072464 
2138	 502.607963046753 
2139	 478.631155102181 
2140	 471.37346236081 
2141	 463.843461420577 
2142	 451.619797280453 
2143	 457.133697710417 
2144	 459.326521838312 
2145	 462.483358461659 
2146	 487.431131472177 
2147	 513.172832973888 
2148	 523.850245824214 
2149	 526.986396161735 
2150	 520.664211493883 
2151	 503.493672708062 
2152	 488.592208720247 
2153	 481.459308382154 
2154	 467.877117103066 
2155	 461.577270798669 
2156	 463.884698411998 
2157	 461.394376844467 
2158	 463.929941896711 
2159	 482.062167831953 
2160	 480.848849374814 
2161	 470.032432989408 
2162	 464.804243168907 
2163	 451.369200413788 
2164	 439.6960518165 
2165	 451.375613524782 
2166	 463.012715994297 
2167	 489.175602066028 
2168	 523.608848443243 
2169	 542.778267496829 
2170	 568.649383310943 
2171	 601.357367205667 
2172	 625.135147555038 
2173	 655.6862090876 
2174	 680.17427664386 
2175	 680.518068336989 
2176	 682.363542536271 
2177	 687.739524620316 
2178	 688.774964127736 
2179	 696.905366755149 
2180	 710.165098809078 
2181	 719.900111353697 
2182	 724.967280991294 
2183	 734.017547972071 
2184	 740.572915329817 
2185	 756.945576173005 
2186	 783.366631550717 
2187	 806.688555052822 
2188	 834.275228200346 
2189	 858.850154313518 
2190	 887.608205745712 
2191	 910.045853992211 
2192	 945.363578912157 
2193	 982.512597348354 
2194	 996.490133642942 
2195	 1013.74689435531 
2196	 1020.24890865755 
2197	 1024.21128270654 
2198	 1046.16768712549 
2199	 1059.04513535673 
2200	 1070.67409843946 
2201	 1076.8648673417 
2202	 1063.36288521464 
2203	 1048.50195665904 
2204	 1041.80955555961 
2205	 1027.79650910651 
2206	 1017.59542137376 
2207	 1020.78030387705 
2208	 1021.43960985055 
2209	 1024.81300815897 
2210	 1024.1978658952 
2211	 1024.56877937322 
2212	 1021.00049906899 
2213	 1009.17471049203 
2214	 1004.70755950213 
2215	 1004.70856542424 
2216	 1001.46266076642 
2217	 999.175968521513 
2218	 995.353755047005 
2219	 990.674042473118 
2220	 984.369878231985 
2221	 976.496776142068 
2222	 965.895525938371 
2223	 948.011857847786 
2224	 937.625730413223 
2225	 924.496180058343 
2226	 911.510880111195 
2227	 909.871623913781 
2228	 897.916780445147 
2229	 889.774642557356 
2230	 888.75608739428 
2231	 886.228638004873 
2232	 895.620496091995 
2233	 900.81735048612 
2234	 899.610076386154 
2235	 888.75979108233 
2236	 866.788477662412 
2237	 851.626684909559 
2238	 836.619734825903 
2239	 821.868805285065 
2240	 811.881401377474 
2241	 800.208504806446 
2242	 786.078087237667 
2243	 776.924494218908 
2244	 774.693777112349 
2245	 764.810777830179 
2246	 754.594035003542 
2247	 747.479722310687 
2248	 739.791330635426 
2249	 732.168071580687 
2250	 725.824093550546 
2251	 712.968468476608 
2252	 690.797972731156 
2253	 672.263899201861 
2254	 658.717063719308 
2255	 645.406536801266 
2256	 626.363344689727 
2257	 627.848009256307 
2258	 620.105849236707 
2259	 592.866214866862 
2260	 576.493129267434 
2261	 556.271995235021 
2262	 542.556119190379 
2263	 532.380071550133 
2264	 512.481583473644 
2265	 492.592643051722 
2266	 467.889092766586 
2267	 442.92338079069 
2268	 432.916038356755 
2269	 420.131042510742 
2270	 413.455855274137 
2271	 416.87808840397 
2272	 406.193605524486 
2273	 392.096415299278 
2274	 366.597918849417 
2275	 334.408450446097 
2276	 311.125782476431 
2277	 286.043789509101 
2278	 273.017232765811 
2279	 263.503860506056 
2280	 247.428833036235 
2281	 245.337655605701 
2282	 231.656643952797 
2283	 210.512479348598 
2284	 202.989800912849 
2285	 189.353345647135 
2286	 182.064350950515 
2287	 185.083803117746 
2288	 184.179381826651 
2289	 181.721297397069 
2290	 179.50829500432 
2291	 179.63347275494 
2292	 177.504384358575 
2293	 174.627562409511 
2294	 173.960295552988 
2295	 172.201213940726 
2296	 169.512370966808 
2297	 166.994757289832 
2298	 164.035774579374 
2299	 159.641464247272 
2300	 156.339789452124 
2301	 156.186025328279 
2302	 152.765081586065 
2303	 144.702272563287 
2304	 143.549802006522 
2305	 144.328755164858 
2306	 142.384079945137 
2307	 143.916187655177 
2308	 144.707705877471 
2309	 140.024204759481 
2310	 143.939407459558 
2311	 153.852483717073 
2312	 171.753015904269 
2313	 180.040596745694 
2314	 186.535987698414 
2315	 188.75285496775 
2316	 167.480914411131 
2317	 159.213199322149 
2318	 149.028874629767 
2319	 133.845312585532 
2320	 132.976563957189 
2321	 125.568117202121 
2322	 115.411632895106 
2323	 118.226173999169 
2324	 120.988195993842 
2325	 127.625043300236 
2326	 145.184129043675 
2327	 141.957754125309 
2328	 138.462000751161 
2329	 139.309307248812 
2330	 122.634459346814 
2331	 112.907481717734 
2332	 102.172239438582 
2333	 89.0735309397103 
2334	 85.2678578072643 
2335	 91.9880952144998 
2336	 100.670215437211 
2337	 99.2706729447601 
2338	 102.109623916428 
2339	 100.168943924046 
2340	 96.1224668258645 
2341	 101.898478499431 
2342	 103.325699674482 
2343	 98.3581274768786 
2344	 86.854300129803 
2345	 69.9014466969553 
2346	 54.8357793996297 
2347	 49.4455263649241 
2348	 48.543641403391 
2349	 51.9120559232417 
2350	 58.0848738772701 
2351	 60.8485916528292 
2352	 69.5002240436384 
2353	 73.7849506233428 
2354	 69.6146299190396 
2355	 63.663770344119 
2356	 50.4064579019052 
2357	 40.1556506405022 
2358	 31.293383947856 
2359	 22.715898490033 
2360	 18.1139707030501 
2361	 12.6484658528856 
2362	 9.65666888306042 
2363	 17.5972151547544 
2364	 38.0237658171536 
2365	 43.9313872241674 
2366	 52.7415617671298 
2367	 58.6254823979357 
2368	 38.7457341978172 
2369	 34.5436952292896 
2370	 40.2798607138416 
2371	 46.0392851522502 
2372	 57.5708056260701 
2373	 63.0292678755674 
2374	 58.459467982949 
2375	 47.2420465602446 
2376	 41.2311280310525 
2377	 44.6785596940732 
2378	 59.9402076985389 
2379	 72.7159873227763 
2380	 82.6667293232657 
2381	 88.2549862243594 
2382	 77.7355846360901 
2383	 80.0552522385709 
2384	 82.5269997255344 
2385	 80.1457788297684 
2386	 89.5360666086515 
2387	 87.6316901348925 
2388	 82.5526543453468 
2389	 78.9501621214615 
2390	 73.0081561164154 
2391	 77.8812584757473 
2392	 86.3316715071629 
2393	 88.5905674110107 
2394	 92.8977092364641 
2395	 88.6907002196541 
2396	 77.5139178029506 
2397	 77.5243068171725 
2398	 74.8343757663726 
2399	 75.0862062344678 
2400	 89.818150675508 
2401	 100.220791193267 
2402	 104.644796344377 
2403	 111.211859504924 
2404	 109.21406141655 
2405	 107.513358018849 
2406	 117.243142640148 
2407	 127.827575607989 
2408	 131.28681166188 
2409	 124.559178524172 
2410	 118.812214875243 
2411	 111.473542338806 
2412	 100.746368043205 
2413	 95.1060858645946 
2414	 82.8641420547362 
2415	 69.6574258974807 
2416	 55.9924103439014 
2417	 44.6499696998012 
2418	 50.004938455752 
2419	 51.0134938511237 
2420	 50.485096278437 
2421	 56.5891754401321 
2422	 52.3080839787605 
2423	 59.5251417846889 
2424	 71.3001447789599 
2425	 73.7886160680888 
2426	 86.9561961259031 
2427	 87.3647212489659 
2428	 80.7378415975164 
2429	 79.8402850485084 
2430	 67.8246732504542 
2431	 53.8498659412836 
2432	 44.804862951785 
2433	 34.5430186722339 
2434	 31.6289993733676 
2435	 38.3152225638445 
2436	 44.703038838244 
2437	 55.9485832620285 
2438	 62.5188970344058 
2439	 61.5173044582839 
2440	 48.8363460525851 
2441	 38.341987323159 
2442	 33.1110238720106 
2443	 18.3198708176632 
2444	 21.0729206532588 
2445	 12.3641425339367 
2446	-2.09352900936228 
2447	 0.572690077298635 
2448	-7.41933046254724 
2449	 4.37515414654111 
2450	 12.6189287457992 
2451	 8.31072618906878 
2452	 20.4157226117984 
2453	 15.9079125277463 
2454	 12.4526461736544 
2455	 12.4668631180822 
2456	-3.40674540803662 
2457	-10.1450205919114 
2458	-8.26947118981532 
2459	-6.28608813272063 
2460	 3.2919586124172 
2461	 14.5859472381316 
2462	 16.7363069544168 
2463	 20.0779761923432 
2464	 18.1536583524572 
2465	 13.0649612480193 
2466	 8.76984369614246 
2467	 2.394412487025 
2468	-2.30939200660134 
2469	-9.84476947334699 
2470	-7.00022634312142 
2471	-2.56996726120718 
2472	 2.91215503658772 
2473	 5.4927318785847 
2474	-0.296637673492865 
2475	-1.51910390173729 
2476	-5.19835607000509 
2477	-5.11414348557649 
2478	 2.85556514565464 
2479	 2.30239933172615 
2480	 8.9136089278925 
2481	 15.9224692662866 
2482	 16.8732757367678 
2483	 20.4963520681927 
2484	 22.9453228005512 
2485	 24.687520215264 
2486	 23.7182472818438 
2487	 27.3406322637028 
2488	 26.8988020786321 
2489	 17.9485491395543 
2490	 17.1660239833539 
2491	 17.7554614929136 
2492	 16.998903163543 
2493	 25.8874004608841 
2494	 35.6668881189439 
2495	 33.7611255768494 
2496	 35.4365830559609 
2497	 41.261152127221 
2498	 36.9751014437352 
2499	 45.7458325295444 
2500	 51.8081364377218 
