Wavelength	2mm_whiteABS00000.asd
350	-0.970068077794468 
351	-0.387150855972963 
352	-0.13311476898553 
353	 0.63796887620998 
354	 0.68437115743144 
355	 0.169708625323729 
356	-0.275006945070557 
357	 0.805778540976453 
358	 0.977100242539808 
359	 0.137850262446273 
360	 0.108899232346912 
361	-0.488881809921582 
362	-0.985973802299134 
363	-0.658046853267983 
364	-0.517443956095985 
365	-0.341237453711731 
366	-0.094241193201336 
367	-1.41673165969343E-02 
368	-0.231050164918258 
369	-0.607827429028338 
370	-0.648396985689407 
371	 1.93423033398632 
372	 3.3165832672126 
373	 1.78764750951362 
374	 0.34294751011166 
375	-1.00247134887012 
376	-1.744130114579 
377	-1.42019238972179 
378	-1.51142138414611 
379	-0.905143385800597 
380	 0.774993888580557 
381	 0.578055154113578 
382	 0.142665430966337 
383	 0.026893733414337 
384	-0.108151456001342 
385	-1.59991276924555 
386	-2.4975027994361 
387	-1.0234034170552 
388	-0.472251903190952 
389	 0.228388127887094 
390	 1.08786819419151 
391	 0.065904367284389 
392	-0.647647277675865 
393	-0.106610938294102 
394	 1.68617127998341 
395	 0.603558484572736 
396	-0.248200561199156 
397	 1.19902746954592 
398	 2.07596005942339 
399	 2.88198984777584 
400	 3.67925434480282 
401	 4.28734470502049 
402	 5.12203905428639 
403	 5.65988132173236 
404	 5.59894361040739 
405	 6.59499194616112 
406	 8.44827384654698 
407	 10.3007888113486 
408	 10.1763447462982 
409	 11.4367417614758 
410	 13.6675910068101 
411	 15.0062588335399 
412	 16.4430124421129 
413	 18.3721773538428 
414	 20.7643249072276 
415	 22.6416011546225 
416	 24.4367789363739 
417	 26.3479100600547 
418	 28.39389095822 
419	 30.5691512871584 
420	 33.0986165561549 
421	 36.015717378737 
422	 38.0729337181482 
423	 39.4614631270268 
424	 40.9956169210846 
425	 44.8394450644809 
426	 47.4132264325084 
427	 49.391944110458 
428	 53.4491026575197 
429	 55.1390656585001 
430	 56.7318388276452 
431	 60.3064075634446 
432	 62.5359341400038 
433	 64.141412544535 
434	 66.0929183679124 
435	 69.7836129912418 
436	 72.3343331063117 
437	 73.6572808061403 
438	 74.9709016168007 
439	 78.5739746990234 
440	 82.2614269792264 
441	 84.3745941182123 
442	 86.1444778440467 
443	 88.483739624981 
444	 91.033087466672 
445	 92.2234238548637 
446	 94.1741578396522 
447	 97.3166924045792 
448	 101.105335508701 
449	 102.399701199187 
450	 103.416583874701 
451	 105.670333438111 
452	 108.336338079222 
453	 111.5077428225 
454	 114.436191578243 
455	 115.875242778458 
456	 118.28704031716 
457	 121.026178588215 
458	 123.023489832214 
459	 124.875872402304 
460	 127.511058566701 
461	 131.114337513949 
462	 134.612142773512 
463	 138.109979328046 
464	 141.378848550816 
465	 144.078511652268 
466	 146.193334258346 
467	 148.762064619301 
468	 152.628604879009 
469	 157.282919304834 
470	 160.720165885162 
471	 163.356982357337 
472	 169.833576523785 
473	 173.00527463388 
474	 174.750650351378 
475	 180.759478005537 
476	 186.386177920977 
477	 191.351086578029 
478	 196.061091442821 
479	 200.5134927354 
480	 205.615267805481 
481	 211.270282945389 
482	 215.87060820768 
483	 221.828369880468 
484	 228.247574621243 
485	 233.06565198341 
486	 238.762986973868 
487	 245.035289020493 
488	 251.496659181283 
489	 259.161351344367 
490	 266.837505868225 
491	 274.275395465045 
492	 282.505728364976 
493	 290.269214855853 
494	 297.093991779608 
495	 303.302771896793 
496	 314.437133132958 
497	 325.122737507322 
498	 331.383919616191 
499	 339.500825604706 
500	 348.019446644824 
501	 356.620716755489 
502	 366.513306456623 
503	 377.062519331396 
504	 387.548032849025 
505	 397.247510655681 
506	 406.816504489248 
507	 416.251806793857 
508	 425.590442545313 
509	 435.108858605775 
510	 446.141524294048 
511	 458.945590442872 
512	 472.592623905368 
513	 484.249308817398 
514	 494.891024821634 
515	 507.131792531503 
516	 519.288511038669 
517	 531.258407320916 
518	 543.242344250974 
519	 555.536315582559 
520	 568.823108030003 
521	 582.581404590016 
522	 594.279086344275 
523	 607.536579461727 
524	 622.156522457785 
525	 636.215043783617 
526	 649.95696179973 
527	 664.187699013536 
528	 678.954665931124 
529	 690.367822621864 
530	 703.425256245601 
531	 719.509030305497 
532	 734.069365474015 
533	 748.380296907161 
534	 762.27847830368 
535	 775.170706413534 
536	 788.481500879355 
537	 802.050527919437 
538	 815.636581811105 
539	 830.405546670951 
540	 845.068485452393 
541	 858.699224301927 
542	 870.843058600143 
543	 883.741342008602 
544	 897.389498924868 
545	 910.425510928274 
546	 924.189943426449 
547	 938.052079933383 
548	 951.125547481769 
549	 963.763110266094 
550	 976.283852884282 
551	 988.671158647339 
552	 1000.12173393037 
553	 1011.58528899444 
554	 1023.29957453344 
555	 1035.00654278461 
556	 1045.8528935633 
557	 1056.60085536556 
558	 1068.1060235458 
559	 1078.41264388168 
560	 1088.35124596414 
561	 1098.40173351656 
562	 1107.83843836563 
563	 1114.59074445479 
564	 1119.46917882962 
565	 1126.1662997365 
566	 1131.16463299105 
567	 1134.94015614885 
568	 1138.88972695371 
569	 1140.6317744723 
570	 1140.20130799399 
571	 1138.87932469838 
572	 1141.13313319462 
573	 1141.1245467238 
574	 1138.1763315127 
575	 1137.92155814412 
576	 1134.64937949701 
577	 1129.10231125507 
578	 1124.4268691479 
579	 1119.1012045068 
580	 1113.01353765485 
581	 1106.70519057065 
582	 1102.52906905292 
583	 1098.08731327146 
584	 1092.55034254752 
585	 1087.58794478594 
586	 1082.13302751218 
587	 1076.31777426734 
588	 1070.87582262631 
589	 1066.35683600382 
590	 1062.67414056261 
591	 1059.82395744336 
592	 1059.06680444233 
593	 1059.64176309248 
594	 1060.4711793424 
595	 1059.46962297768 
596	 1061.03692054971 
597	 1065.85344586337 
598	 1072.12688906982 
599	 1078.97726411965 
600	 1085.81756191914 
601	 1092.3821945879 
602	 1099.09111795728 
603	 1106.79145422217 
604	 1115.45929810024 
605	 1122.78158078158 
606	 1130.6993178761 
607	 1140.75824841338 
608	 1154.40685345449 
609	 1169.63786088422 
610	 1185.50577280369 
611	 1201.55653099823 
612	 1218.89165168713 
613	 1236.11276481376 
614	 1252.15861489851 
615	 1267.83074675 
616	 1283.13221216466 
617	 1297.51165086512 
618	 1309.43244201345 
619	 1322.97637489041 
620	 1338.23768737695 
621	 1353.54771780731 
622	 1368.7367374249 
623	 1383.94587181305 
624	 1399.45679461128 
625	 1415.87904389317 
626	 1431.5029734766 
627	 1445.93409126964 
628	 1460.9766623427 
629	 1475.82478894935 
630	 1489.6730130499 
631	 1501.69952684946 
632	 1514.67269596659 
633	 1527.38951357964 
634	 1538.28526645642 
635	 1548.791711212 
636	 1559.25293625908 
637	 1569.59727566561 
638	 1578.96273343596 
639	 1588.43669818355 
640	 1598.0376971653 
641	 1607.05480529063 
642	 1618.64332926635 
643	 1631.10560415254 
644	 1641.94080415134 
645	 1653.8543596891 
646	 1665.61372426829 
647	 1676.69025996224 
648	 1689.38441073407 
649	 1701.556356862 
650	 1713.1218028065 
651	 1725.96694089391 
652	 1738.80061759366 
653	 1752.33903894687 
654	 1767.56399852829 
655	 1781.32962341479 
656	 1795.17866924565 
657	 1810.34725056841 
658	 1824.96738878211 
659	 1840.21939807044 
660	 1856.26294678467 
661	 1871.87733133969 
662	 1888.68152561031 
663	 1906.09839731813 
664	 1922.58853560781 
665	 1937.85445939082 
666	 1953.17951366794 
667	 1969.68433897292 
668	 1986.39835153847 
669	 2004.96848036111 
670	 2025.15638153198 
671	 2043.51250699536 
672	 2061.19276768495 
673	 2079.582911352 
674	 2100.38079241629 
675	 2121.80853845236 
676	 2142.8445166162 
677	 2163.30427786925 
678	 2186.4356231195 
679	 2208.52753970225 
680	 2228.43424617792 
681	 2250.59396579905 
682	 2273.40285248636 
683	 2296.41210209862 
684	 2319.71725931967 
685	 2344.20587683793 
686	 2368.88090295488 
687	 2392.59564350964 
688	 2416.67702373295 
689	 2440.43756639876 
690	 2463.81532888528 
691	 2488.69944110426 
692	 2513.10188084236 
693	 2536.69256526731 
694	 2560.45155346425 
695	 2581.9734090166 
696	 2603.659803395 
697	 2628.32502065156 
698	 2649.92219545899 
699	 2670.96209816952 
700	 2692.94819946968 
701	 2712.17576874643 
702	 2731.29041028123 
703	 2750.83894817972 
704	 2769.38831689652 
705	 2788.36297458439 
706	 2806.16398558695 
707	 2820.75005953987 
708	 2835.98491350668 
709	 2851.77902641598 
710	 2867.24685013367 
711	 2880.7541984225 
712	 2893.53121212718 
713	 2906.5156533677 
714	 2920.43651799915 
715	 2934.89317605318 
716	 2948.51259773195 
717	 2960.08377694025 
718	 2974.94074508539 
719	 2989.93840882432 
720	 3002.49547446429 
721	 3016.1164497036 
722	 3028.59917182669 
723	 3039.5585094318 
724	 3050.86147531421 
725	 3062.3375356147 
726	 3074.14864952133 
727	 3086.3236171 
728	 3096.96082211414 
729	 3107.15629813616 
730	 3117.69523143231 
731	 3125.99691347402 
732	 3137.15570761119 
733	 3151.32411071109 
734	 3162.03626833062 
735	 3170.87967326519 
736	 3179.19509250695 
737	 3188.31449382406 
738	 3195.80899682803 
739	 3202.27597010069 
740	 3208.83726048385 
741	 3216.73500406785 
742	 3224.33787049878 
743	 3230.69093994778 
744	 3235.57765978666 
745	 3240.93325316946 
746	 3246.15160556593 
747	 3249.76422111781 
748	 3254.93032843278 
749	 3259.45047175821 
750	 3261.82845059977 
751	 3266.18173716727 
752	 3269.11837987315 
753	 3270.24054974723 
754	 3273.13041449489 
755	 3276.39288079065 
756	 3278.99123886851 
757	 3279.88551608732 
758	 3278.774721438 
759	 3275.91296502628 
760	 3272.39921349622 
761	 3271.5586410945 
762	 3271.90046253912 
763	 3272.65194502258 
764	 3273.88171196375 
765	 3275.30324260932 
766	 3276.00158931213 
767	 3274.90364015873 
768	 3271.86932745374 
769	 3268.80583011087 
770	 3266.60009495771 
771	 3262.46649172459 
772	 3257.43529688117 
773	 3252.73966854678 
774	 3249.99111231916 
775	 3247.11414599673 
776	 3242.85556693735 
777	 3236.63346070543 
778	 3230.88994811266 
779	 3224.7406775559 
780	 3217.58398864674 
781	 3210.43850280352 
782	 3203.10282488127 
783	 3195.0932048458 
784	 3185.6440391525 
785	 3177.19610900175 
786	 3169.05272345265 
787	 3159.94657721589 
788	 3151.21461188309 
789	 3141.43559362348 
790	 3130.7523827095 
791	 3123.52246121244 
792	 3113.03452661515 
793	 3099.84454224357 
794	 3088.9593429715 
795	 3077.51188939591 
796	 3065.31757800737 
797	 3052.84609247867 
798	 3041.07265932538 
799	 3029.00639858911 
800	 3016.55989374599 
801	 3005.20883591955 
802	 2994.16923537244 
803	 2983.10217574577 
804	 2971.70846831907 
805	 2958.76460300656 
806	 2944.91724050565 
807	 2930.9601351672 
808	 2916.88385483161 
809	 2903.94794429365 
810	 2891.69296824131 
811	 2877.71896213167 
812	 2864.61032035973 
813	 2851.29681934911 
814	 2836.17571035886 
815	 2822.80031263888 
816	 2809.4139872318 
817	 2795.07033352231 
818	 2781.83904972637 
819	 2768.55459261213 
820	 2754.31313398047 
821	 2738.36081649076 
822	 2722.2965987808 
823	 2706.21467325065 
824	 2690.42814911674 
825	 2678.01631974148 
826	 2665.06616653211 
827	 2650.27022132608 
828	 2636.35589800962 
829	 2622.32929581094 
830	 2606.01778683424 
831	 2585.58273330004 
832	 2568.40235370307 
833	 2551.22523282515 
834	 2531.8160518078 
835	 2514.08710287447 
836	 2498.87763164214 
837	 2485.95748526378 
838	 2474.12115041694 
839	 2465.23603265111 
840	 2456.36249840561 
841	 2444.70843937463 
842	 2434.2020610799 
843	 2422.78810802012 
844	 2408.94230089408 
845	 2391.83352533957 
846	 2377.17395268623 
847	 2364.05566294043 
848	 2348.95444037924 
849	 2333.54295868487 
850	 2318.20779834983 
851	 2302.85537563709 
852	 2286.25645290409 
853	 2271.14415593167 
854	 2257.43720898661 
855	 2242.928389695 
856	 2227.0557906214 
857	 2210.46801371853 
858	 2193.71428192844 
859	 2175.38457153528 
860	 2156.08214848031 
861	 2136.96797512833 
862	 2119.97275767558 
863	 2102.54600853332 
864	 2083.39931241567 
865	 2062.07016865503 
866	 2040.35360987691 
867	 2019.38202427281 
868	 1999.06064928482 
869	 1976.80837454589 
870	 1955.82287938708 
871	 1935.88724360549 
872	 1915.35612968596 
873	 1897.38667957356 
874	 1882.37182934018 
875	 1869.84945644467 
876	 1858.29309952105 
877	 1849.71111511945 
878	 1842.73914772563 
879	 1833.41435961574 
880	 1825.96062985461 
881	 1820.93112674391 
882	 1817.13970427647 
883	 1810.03619967947 
884	 1803.83297737322 
885	 1798.28938228107 
886	 1787.64343827887 
887	 1777.64114470873 
888	 1767.75134418844 
889	 1756.18630290616 
890	 1745.56547549599 
891	 1733.1818164453 
892	 1718.66982177543 
893	 1705.91191633886 
894	 1692.01323078884 
895	 1677.93200089688 
896	 1665.4900546164 
897	 1651.32377776273 
898	 1637.6597703726 
899	 1625.16067895238 
900	 1609.93251826801 
901	 1596.27404515883 
902	 1583.7405712244 
903	 1569.8678308286 
904	 1556.23900764865 
905	 1542.54931519828 
906	 1528.22011773345 
907	 1512.37005792208 
908	 1497.01743255148 
909	 1482.29656066881 
910	 1467.19952304451 
911	 1451.25619588346 
912	 1436.08989982742 
913	 1422.50343235033 
914	 1408.24306042971 
915	 1393.91251934294 
916	 1379.66263667637 
917	 1365.43213464148 
918	 1351.95351591566 
919	 1338.49564587035 
920	 1324.88195129667 
921	 1313.52126964398 
922	 1301.8914660067 
923	 1289.48980009778 
924	 1277.41985118393 
925	 1268.09392936201 
926	 1258.82637422614 
927	 1247.44287929318 
928	 1236.34543995294 
929	 1225.65468005967 
930	 1214.79961412381 
931	 1202.82959032226 
932	 1193.02234400698 
933	 1182.45009167874 
934	 1169.35799873892 
935	 1159.06730991986 
936	 1148.9041672918 
937	 1138.57061303488 
938	 1129.30135732949 
939	 1119.23177940211 
940	 1108.48774836905 
941	 1097.73398785918 
942	 1088.20642071324 
943	 1077.84381244861 
944	 1066.29828552171 
945	 1054.52470357933 
946	 1045.00524101345 
947	 1035.00442861866 
948	 1023.12430336887 
949	 1013.56889080303 
950	 1002.96814516059 
951	 991.589045779564 
952	 981.409322403725 
953	 970.667109153544 
954	 960.259378110833 
955	 950.430140208182 
956	 939.316792305647 
957	 928.206214447341 
958	 916.829864603684 
959	 904.62352647871 
960	 893.755291275293 
961	 883.053941901427 
962	 871.758667351479 
963	 860.230420208281 
964	 849.804754394396 
965	 839.074377733744 
966	 1401.94953963486 
967	 1418.90706279617 
968	 1438.14243267723 
969	 1459.0104601462 
970	 1484.49900700365 
971	 1504.36842493816 
972	 1521.46288651899 
973	 1544.096134051 
974	 1564.67138318803 
975	 1589.35590103015 
976	 1620.54837842601 
977	 1651.24654379152 
978	 1677.40746646036 
979	 1702.7970178879 
980	 1725.20694237437 
981	 1746.39340807282 
982	 1763.84238087504 
983	 1783.3476703113 
984	 1804.15601864159 
985	 1822.23041795143 
986	 1841.11484865258 
987	 1862.38478240269 
988	 1879.47203256988 
989	 1892.45870545371 
990	 1908.05283376612 
991	 1925.22998262591 
992	 1938.20486951157 
993	 1949.50371887667 
994	 1961.7558471702 
995	 1972.17508070169 
996	 1984.76613823172 
997	 1998.04587248106 
998	 2013.07128878283 
999	 2030.16617132494 
1000	 2040.58590309463 
1001	 2051.57351237835 
1002	 2065.36259155512 
1003	 2075.31966483815 
1004	 2089.32066018724 
1005	 2105.0996346176 
1006	 2126.27568439646 
1007	 2142.37198887733 
1008	 2158.49778183218 
1009	 2171.61915537539 
1010	 2183.65974928501 
1011	 2194.473579578 
1012	 2206.67479559431 
1013	 2220.14505822231 
1014	 2231.10496719261 
1015	 2242.25151076744 
1016	 2254.31030823634 
1017	 2266.89649941841 
1018	 2277.07246877163 
1019	 2288.81843333911 
1020	 2300.05085857587 
1021	 2308.43656937585 
1022	 2323.43572283117 
1023	 2335.71817559245 
1024	 2347.47941674464 
1025	 2357.97070647257 
1026	 2370.22032728423 
1027	 2378.74846910288 
1028	 2390.04738106006 
1029	 2403.32869458558 
1030	 2417.62677249805 
1031	 2432.67282999509 
1032	 2445.98999611814 
1033	 2459.04681304087 
1034	 2473.65942502997 
1035	 2488.72903386893 
1036	 2501.2594290121 
1037	 2515.87898355084 
1038	 2528.84673928987 
1039	 2537.87942679749 
1040	 2550.07213915552 
1041	 2564.55443006995 
1042	 2578.8026101896 
1043	 2593.72182331206 
1044	 2609.09584822442 
1045	 2625.35772420847 
1046	 2638.75161824324 
1047	 2650.97899843782 
1048	 2664.73046326566 
1049	 2677.3150259148 
1050	 2690.62811874923 
1051	 2702.78743574105 
1052	 2712.15049677972 
1053	 2721.99389175958 
1054	 2732.04559270765 
1055	 2743.98356703701 
1056	 2755.87075201714 
1057	 2766.95611934306 
1058	 2777.5417229208 
1059	 2788.44551552378 
1060	 2799.00767230297 
1061	 2810.41392193356 
1062	 2822.20648576337 
1063	 2834.11074594704 
1064	 2847.46700264466 
1065	 2857.2158008954 
1066	 2871.43412760736 
1067	 2884.55418478259 
1068	 2896.26068762131 
1069	 2911.57511173954 
1070	 2922.17669606938 
1071	 2933.5681153285 
1072	 2946.7467406389 
1073	 2959.32570505864 
1074	 2973.84058559874 
1075	 2991.55106976774 
1076	 3006.80946888255 
1077	 3022.03795715553 
1078	 3037.07282681608 
1079	 3050.60408198546 
1080	 3065.6358747042 
1081	 3082.14502014414 
1082	 3097.0862933718 
1083	 3111.38895657183 
1084	 3126.73848043113 
1085	 3141.13018563185 
1086	 3154.9018749493 
1087	 3171.00432695574 
1088	 3187.89083518269 
1089	 3202.85321585133 
1090	 3221.08347885628 
1091	 3240.87081212061 
1092	 3261.41759136227 
1093	 3283.2947595211 
1094	 3309.50180201688 
1095	 3331.850543418 
1096	 3352.99449623716 
1097	 3374.68605554398 
1098	 3393.61109729919 
1099	 3416.43739004886 
1100	 3441.7902120727 
1101	 3466.53703277518 
1102	 3493.88865102148 
1103	 3519.92439993009 
1104	 3546.27065964592 
1105	 3569.96609432728 
1106	 3593.53315416478 
1107	 3617.57969845287 
1108	 3637.43162976059 
1109	 3659.23109614426 
1110	 3683.10661878764 
1111	 3709.29712856487 
1112	 3731.8218034165 
1113	 3757.30430729685 
1114	 3776.14962812843 
1115	 3788.74386899672 
1116	 3803.28478169402 
1117	 3818.57855980041 
1118	 3828.50693397501 
1119	 3837.89200809066 
1120	 3841.93034053169 
1121	 3841.4342984373 
1122	 3836.02782983277 
1123	 3827.31842337274 
1124	 3813.07686265423 
1125	 3794.63882833787 
1126	 3770.68962350789 
1127	 3735.53433045482 
1128	 3692.47510089108 
1129	 3645.44818258721 
1130	 3586.57472966479 
1131	 3531.34733868264 
1132	 3473.34672192834 
1133	 3416.54675803033 
1134	 3356.42052884749 
1135	 3299.87603681934 
1136	 3241.94293737916 
1137	 3191.44426182012 
1138	 3136.53269419964 
1139	 3100.57233857236 
1140	 3074.37396824441 
1141	 3058.84752019594 
1142	 3056.29636203608 
1143	 3063.67490866437 
1144	 3077.11556573607 
1145	 3106.34465696004 
1146	 3150.15027583695 
1147	 3204.73612306163 
1148	 3271.47927811313 
1149	 3353.84996966971 
1150	 3438.90897597833 
1151	 3534.82136855781 
1152	 3633.16989132872 
1153	 3741.3072409207 
1154	 3844.01254016351 
1155	 3953.9908951993 
1156	 4053.50909592603 
1157	 4149.16206064096 
1158	 4240.01180840304 
1159	 4330.7709239066 
1160	 4407.49965057557 
1161	 4476.66746888075 
1162	 4537.66273720131 
1163	 4585.16172719539 
1164	 4629.96288421635 
1165	 4669.46120750029 
1166	 4702.72777008817 
1167	 4729.5182173917 
1168	 4750.63668719898 
1169	 4765.30201677255 
1170	 4779.12925015756 
1171	 4791.83928348822 
1172	 4802.09400266819 
1173	 4810.42774634549 
1174	 4817.6188956289 
1175	 4822.17343961813 
1176	 4824.90098318009 
1177	 4823.09669959872 
1178	 4820.41325333054 
1179	 4811.21207150236 
1180	 4795.74357030544 
1181	 4778.66284077853 
1182	 4756.6441326103 
1183	 4733.71403235845 
1184	 4708.99285299632 
1185	 4680.91396205515 
1186	 4650.37970909744 
1187	 4617.34362322003 
1188	 4575.57266305835 
1189	 4541.32978387499 
1190	 4511.03123898 
1191	 4477.43274590448 
1192	 4446.89665735667 
1193	 4418.26040637913 
1194	 4385.62420094519 
1195	 4355.99259029016 
1196	 4332.02033973357 
1197	 4312.29059056469 
1198	 4296.42520337194 
1199	 4283.64548898349 
1200	 4276.98457259792 
1201	 4274.67235970332 
1202	 4278.26896409606 
1203	 4287.41591248982 
1204	 4301.77125813033 
1205	 4323.16972543396 
1206	 4345.54448977577 
1207	 4373.42121481037 
1208	 4402.6404088969 
1209	 4432.21266254978 
1210	 4466.75214014657 
1211	 4505.01349845691 
1212	 4545.79713065509 
1213	 4591.08690077331 
1214	 4643.62273437254 
1215	 4698.00004302826 
1216	 4751.84077015811 
1217	 4807.21713297433 
1218	 4859.94238833722 
1219	 4912.28670204612 
1220	 4968.10452079599 
1221	 5025.93963376466 
1222	 5086.25910409602 
1223	 5146.19370036211 
1224	 5208.58397098486 
1225	 5269.74964193016 
1226	 5330.50431278545 
1227	 5391.26543361023 
1228	 5452.87368126664 
1229	 5513.16205859059 
1230	 5572.86345892342 
1231	 5630.78575317699 
1232	 5688.1544797894 
1233	 5744.94977306994 
1234	 5801.39426522978 
1235	 5855.11031120831 
1236	 5908.44053241169 
1237	 5958.05146613254 
1238	 6003.91939402063 
1239	 6047.78238021214 
1240	 6090.03269705511 
1241	 6130.26102303686 
1242	 6168.39549829339 
1243	 6204.90993095998 
1244	 6239.12802559882 
1245	 6271.63249484754 
1246	 6302.02383318752 
1247	 6333.12078179426 
1248	 6364.15825981237 
1249	 6395.42266781864 
1250	 6426.71033896128 
1251	 6459.65916383675 
1252	 6488.45844402802 
1253	 6515.58994026827 
1254	 6541.43257948957 
1255	 6564.01589639856 
1256	 6588.18180662627 
1257	 6612.28145802708 
1258	 6636.05750146479 
1259	 6661.08699886386 
1260	 6683.87834857888 
1261	 6705.26149415792 
1262	 6726.0528972323 
1263	 6745.75034326014 
1264	 6765.22913166316 
1265	 6786.66809467903 
1266	 6804.31492694021 
1267	 6820.2244326553 
1268	 6834.28674909622 
1269	 6845.90446408096 
1270	 6860.03868981746 
1271	 6871.16413439148 
1272	 6878.48323742594 
1273	 6884.21934659158 
1274	 6884.59883634681 
1275	 6884.35872842892 
1276	 6885.13010266228 
1277	 6883.40325973512 
1278	 6882.71160565468 
1279	 6879.00059891931 
1280	 6873.61851630117 
1281	 6866.55487191983 
1282	 6856.51207534909 
1283	 6846.39253273606 
1284	 6836.64034303084 
1285	 6825.22229903812 
1286	 6811.62320865932 
1287	 6797.52349526857 
1288	 6781.48362735444 
1289	 6766.87220291008 
1290	 6752.82416439688 
1291	 6740.71557869973 
1292	 6732.69206926859 
1293	 6723.04318881489 
1294	 6713.44560290326 
1295	 6704.75276488248 
1296	 6695.02129259984 
1297	 6684.81971928655 
1298	 6675.46504620494 
1299	 6672.24701657799 
1300	 6672.79430784593 
1301	 6677.00628794027 
1302	 6684.50653957669 
1303	 6689.85376430034 
1304	 6696.14441747784 
1305	 6703.80915679062 
1306	 6713.50970720816 
1307	 6724.8205235168 
1308	 6734.35411136842 
1309	 6742.78126138165 
1310	 6748.69412147418 
1311	 6753.2200225671 
1312	 6758.45079433775 
1313	 6764.02693993512 
1314	 6767.55537465749 
1315	 6770.67628148713 
1316	 6773.16912828391 
1317	 6773.32154541948 
1318	 6774.5945158478 
1319	 6776.17597598783 
1320	 6777.76735428562 
1321	 6778.73188682199 
1322	 6780.87152378186 
1323	 6786.50227755154 
1324	 6794.17130451877 
1325	 6804.92762957216 
1326	 6815.39381562797 
1327	 6826.02144462598 
1328	 6837.96320256303 
1329	 6852.82014932997 
1330	 6872.23573097693 
1331	 6889.04618857519 
1332	 6906.72540809286 
1333	 6923.23979244653 
1334	 6934.41508187997 
1335	 6953.13816260206 
1336	 6972.81797629354 
1337	 6988.48234633141 
1338	 7006.19364207216 
1339	 7021.83860208385 
1340	 7038.85892145545 
1341	 7057.41760594251 
1342	 7074.49369880045 
1343	 7090.23123975636 
1344	 7103.63117144614 
1345	 7115.5295220598 
1346	 7128.41277467119 
1347	 7139.79765739755 
1348	 7150.41133036263 
1349	 7158.14652590145 
1350	 7164.95778987785 
1351	 7169.74300260577 
1352	 7173.51870541221 
1353	 7172.87784997374 
1354	 7169.69058824075 
1355	 7163.0223815772 
1356	 7151.89672780342 
1357	 7137.93319387928 
1358	 7123.62554269488 
1359	 7106.49415993007 
1360	 7087.72045377188 
1361	 7072.46612288372 
1362	 7057.70609461329 
1363	 7040.44243930976 
1364	 7022.23975636529 
1365	 7003.06110433175 
1366	 6983.7434213332 
1367	 6964.10252500328 
1368	 6943.85936603981 
1369	 6920.02233260033 
1370	 6892.68293285031 
1371	 6860.56573718059 
1372	 6825.07251699328 
1373	 6786.54011078236 
1374	 6736.00073115558 
1375	 6680.33624250056 
1376	 6623.19739057721 
1377	 6562.67354535079 
1378	 6501.35569106892 
1379	 6439.45914950274 
1380	 6377.99265610766 
1381	 6319.39480618184 
1382	 6263.89506742978 
1383	 6213.21664434634 
1384	 6167.47259683604 
1385	 6122.66702479728 
1386	 6084.85935341586 
1387	 6053.10267067193 
1388	 6028.44165607723 
1389	 6010.33780140349 
1390	 5992.52518212462 
1391	 5978.34041591999 
1392	 5967.09556768506 
1393	 5956.27227537272 
1394	 5949.34492560008 
1395	 5947.41768345442 
1396	 5947.54835999917 
1397	 5944.78700519542 
1398	 5938.5887162961 
1399	 5927.27550722035 
1400	 5912.43006994115 
1401	 5896.11464966546 
1402	 5880.80402417857 
1403	 5865.74624760936 
1404	 5852.57872365776 
1405	 5838.42310861796 
1406	 5822.1191498153 
1407	 5808.96737466369 
1408	 5796.64120234131 
1409	 5786.84490667616 
1410	 5783.42608160163 
1411	 5784.32839827507 
1412	 5789.03645259937 
1413	 5799.7529062806 
1414	 5814.27532892951 
1415	 5832.3535906441 
1416	 5855.18859636361 
1417	 5879.97827101525 
1418	 5906.95314623994 
1419	 5934.84640599227 
1420	 5960.54922686137 
1421	 5983.7903006439 
1422	 6007.69435183121 
1423	 6033.14774701292 
1424	 6056.67930792284 
1425	 6082.95705601754 
1426	 6107.29162253465 
1427	 6125.73632869145 
1428	 6147.32528321579 
1429	 6165.81286940698 
1430	 6181.31067967042 
1431	 6194.77654615825 
1432	 6205.99974347017 
1433	 6222.52498272792 
1434	 6239.55441910971 
1435	 6259.55154795984 
1436	 6280.69841043408 
1437	 6297.75123132641 
1438	 6314.46120321678 
1439	 6331.71839843257 
1440	 6351.95746140966 
1441	 6372.37161459043 
1442	 6394.76935200666 
1443	 6419.3557279604 
1444	 6441.24948885585 
1445	 6464.02025751481 
1446	 6487.38556375128 
1447	 6509.95226521179 
1448	 6532.06698080145 
1449	 6556.12505211229 
1450	 6581.38160744693 
1451	 6604.28538943161 
1452	 6628.19968001903 
1453	 6648.77845665346 
1454	 6662.98563845764 
1455	 6678.13827163943 
1456	 6693.75695136541 
1457	 6705.14710916778 
1458	 6717.35395552318 
1459	 6728.68245690157 
1460	 6732.8986110362 
1461	 6736.77066183068 
1462	 6741.12509592506 
1463	 6742.51990018554 
1464	 6742.69222324628 
1465	 6741.37189068702 
1466	 6738.65133395806 
1467	 6736.18332838207 
1468	 6735.46405548356 
1469	 6737.16784930773 
1470	 6741.32637842008 
1471	 6745.64189837275 
1472	 6750.98407550202 
1473	 6755.99025749435 
1474	 6758.85345675459 
1475	 6762.77901239429 
1476	 6767.20804438445 
1477	 6772.25702295936 
1478	 6777.77489955742 
1479	 6782.5476943203 
1480	 6785.03515228678 
1481	 6786.94051410591 
1482	 6791.22498209754 
1483	 6793.57763751576 
1484	 6798.1920712975 
1485	 6806.7751617672 
1486	 6812.25883695619 
1487	 6819.82343531941 
1488	 6827.88303261115 
1489	 6830.43396749488 
1490	 6836.03007121756 
1491	 6845.50775255484 
1492	 6853.84309488269 
1493	 6864.74951668701 
1494	 6877.6746725399 
1495	 6888.93128102123 
1496	 6900.77933766316 
1497	 6912.14734966293 
1498	 6922.59558042319 
1499	 6933.167803412 
1500	 6941.57458768501 
1501	 6950.01917908494 
1502	 6954.50860645029 
1503	 6955.95062300166 
1504	 6961.11439751839 
1505	 6964.53694159471 
1506	 6967.04813622071 
1507	 6970.45951987047 
1508	 6971.18528850888 
1509	 6970.32353371924 
1510	 6969.26561536493 
1511	 6969.16350125114 
1512	 6965.16601285685 
1513	 6963.06994533842 
1514	 6964.36574494002 
1515	 6962.87812486482 
1516	 6967.41165430344 
1517	 6970.60618410458 
1518	 6972.3681137273 
1519	 6978.79550163149 
1520	 6980.83087790342 
1521	 6982.50547443462 
1522	 6984.49794466459 
1523	 6982.14920412995 
1524	 6980.52033717868 
1525	 6980.45285654894 
1526	 6977.79768994951 
1527	 6976.09499869667 
1528	 6975.75531292443 
1529	 6971.92030642267 
1530	 6968.97174259823 
1531	 6964.38680523367 
1532	 6955.91175993458 
1533	 6949.23835273443 
1534	 6942.88261704886 
1535	 6937.9018569358 
1536	 6933.00647513202 
1537	 6928.99180874221 
1538	 6926.40129262039 
1539	 6920.92331137689 
1540	 6917.82286710697 
1541	 6913.89484612532 
1542	 6907.05957571288 
1543	 6902.82312206539 
1544	 6899.63096293366 
1545	 6896.22965918296 
1546	 6890.07525454575 
1547	 6883.96209607894 
1548	 6876.47318340397 
1549	 6868.6635913669 
1550	 6865.5083559242 
1551	 6860.87897540665 
1552	 6855.54577683119 
1553	 6847.74531440609 
1554	 6835.54817586881 
1555	 6822.42236712471 
1556	 6807.43998486575 
1557	 6791.5418761872 
1558	 6776.59928575062 
1559	 6761.78801362281 
1560	 6745.23495980098 
1561	 6727.76548696269 
1562	 6706.68314745164 
1563	 6682.89189591473 
1564	 6659.11534389596 
1565	 6634.06521885263 
1566	 6608.46880791368 
1567	 6580.98472182931 
1568	 6554.5521359265 
1569	 6527.46310616578 
1570	 6498.18915572374 
1571	 6472.82139055936 
1572	 6448.33201055202 
1573	 6423.84198120538 
1574	 6405.51803564514 
1575	 6388.40825791667 
1576	 6366.48051108156 
1577	 6346.44870409901 
1578	 6325.38063157219 
1579	 6301.51328569704 
1580	 6282.87058290092 
1581	 6263.12241109192 
1582	 6240.12381467104 
1583	 6216.50627256909 
1584	 6190.32373798847 
1585	 6163.96575102326 
1586	 6137.69072837307 
1587	 6112.22763755097 
1588	 6086.75970992488 
1589	 6060.35561636167 
1590	 6035.68183314539 
1591	 6011.73644766004 
1592	 5984.69062154405 
1593	 5952.59874460512 
1594	 5917.30081153136 
1595	 5879.5789516924 
1596	 5841.25937184218 
1597	 5805.32745425889 
1598	 5768.74907456397 
1599	 5728.85602557987 
1600	 5687.76909250746 
1601	 5644.73332957672 
1602	 5600.77765674878 
1603	 5555.20080354384 
1604	 5506.0286342081 
1605	 5456.53710758622 
1606	 5402.18692505361 
1607	 5346.2282374468 
1608	 5293.38182449088 
1609	 5236.61218959653 
1610	 5178.75773782049 
1611	 5115.09618211687 
1612	 5040.54663732193 
1613	 4960.00159986899 
1614	 4871.1305670131 
1615	 4778.08808797655 
1616	 4681.47720233609 
1617	 4578.71307145423 
1618	 4472.0969197903 
1619	 4356.0459854282 
1620	 4231.06695497116 
1621	 4099.97379609966 
1622	 3960.37008611904 
1623	 3823.6704841492 
1624	 3688.03876208081 
1625	 3551.62347522458 
1626	 3418.24225806136 
1627	 3284.75174382141 
1628	 3154.75454460611 
1629	 3029.63550362721 
1630	 2912.95282765806 
1631	 2806.62629378638 
1632	 2710.85257412857 
1633	 2626.36694001826 
1634	 2551.60115720226 
1635	 2488.84114378905 
1636	 2438.61930547647 
1637	 2396.98833026675 
1638	 2370.40545989214 
1639	 2345.67405728904 
1640	 2326.75796315343 
1641	 2313.06948114679 
1642	 2306.67252301649 
1643	 2301.5403778184 
1644	 2305.2300320715 
1645	 2303.62102438496 
1646	 2305.94149936973 
1647	 2296.93414664121 
1648	 2285.04994663476 
1649	 2261.8366453198 
1650	 2231.80386185245 
1651	 2188.00880876288 
1652	 2134.49396018277 
1653	 2068.08611968565 
1654	 1984.99123770582 
1655	 1897.39862196023 
1656	 1798.20276583461 
1657	 1695.66057268181 
1658	 1583.64607354945 
1659	 1474.22455388664 
1660	 1356.58018807898 
1661	 1249.84677984783 
1662	 1145.14267327961 
1663	 1049.00414749294 
1664	 959.104983126253 
1665	 877.101339654765 
1666	 802.734039531189 
1667	 733.083861262824 
1668	 669.415156082627 
1669	 613.940327909581 
1670	 564.241392003597 
1671	 522.597000519793 
1672	 490.103416938118 
1673	 462.641633751859 
1674	 442.055422754506 
1675	 424.278154838869 
1676	 414.084098504659 
1677	 402.74484250058 
1678	 392.560127608142 
1679	 387.711396651365 
1680	 385.765927255498 
1681	 386.913319985452 
1682	 393.002823130275 
1683	 397.372289218076 
1684	 405.422242338179 
1685	 410.988373130207 
1686	 419.516250912679 
1687	 425.333001941014 
1688	 432.254085710365 
1689	 438.42313118514 
1690	 447.06588049512 
1691	 460.36515241318 
1692	 470.079132879463 
1693	 478.437281150201 
1694	 487.942506908741 
1695	 494.317307491646 
1696	 503.569901020331 
1697	 516.581710656927 
1698	 528.49684841737 
1699	 540.72458644779 
1700	 552.915335997083 
1701	 566.439599216345 
1702	 577.30302134255 
1703	 586.482324959472 
1704	 596.07034654228 
1705	 604.059715392505 
1706	 612.347662388908 
1707	 620.960724446719 
1708	 629.823314698656 
1709	 639.095889564875 
1710	 646.490425534452 
1711	 653.457766607161 
1712	 660.378464164166 
1713	 665.272492254733 
1714	 671.477687762018 
1715	 679.048990094542 
1716	 685.77939477167 
1717	 692.262370609372 
1718	 697.792980066517 
1719	 702.828530617274 
1720	 707.980865994174 
1721	 711.795414675554 
1722	 717.873559896692 
1723	 724.597867244281 
1724	 733.577254404433 
1725	 744.038027737331 
1726	 755.161173317019 
1727	 767.944112859105 
1728	 782.719876915092 
1729	 797.845085727532 
1730	 814.926560803593 
1731	 831.466973824254 
1732	 846.36709975647 
1733	 860.917344997556 
1734	 877.110919829544 
1735	 888.545349066241 
1736	 898.836489053486 
1737	 904.037604614129 
1738	 903.889235101095 
1739	 901.761004812361 
1740	 897.21331934795 
1741	 888.461288978379 
1742	 875.743940238894 
1743	 860.927355767031 
1744	 841.533796986141 
1745	 821.391156502486 
1746	 799.007602867834 
1747	 776.451975859309 
1748	 749.210949681496 
1749	 729.781847562672 
1750	 712.481703404945 
1751	 698.953895405842 
1752	 690.623067294598 
1753	 683.893967630803 
1754	 678.833494715786 
1755	 679.764502732948 
1756	 543.695077021012 
1757	 552.450621409232 
1758	 566.517709351025 
1759	 585.057369130022 
1760	 600.066385818638 
1761	 623.986120633965 
1762	 665.304916670917 
1763	 703.397420254435 
1764	 729.407138893346 
1765	 748.207581837695 
1766	 771.025000101243 
1767	 778.029570557419 
1768	 801.523499099871 
1769	 836.259646736828 
1770	 876.170040678123 
1771	 904.400896170638 
1772	 928.902109332493 
1773	 951.145919808348 
1774	 968.987908300052 
1775	 977.973048249243 
1776	 973.489560218696 
1777	 985.470137349403 
1778	 999.263559187818 
1779	 1003.62059845579 
1780	 1029.36864002536 
1781	 1059.71005473603 
1782	 1068.42486514375 
1783	 1094.18349015657 
1784	 1117.04760257962 
1785	 1139.87647750074 
1786	 1153.76207130947 
1787	 1188.71984074444 
1788	 1207.11868436507 
1789	 1206.46386601109 
1790	 1230.49649273548 
1791	 1250.99522478152 
1792	 1268.50567241313 
1793	 1296.49188936129 
1794	 1319.6070594363 
1795	 1342.0065148763 
1796	 1364.30687293398 
1797	 1380.40919967032 
1798	 1393.98178887215 
1799	 1408.10272591752 
1800	 1405.99617084921 
1801	 1405.9972643095 
1802	 1415.38958197754 
1803	 1432.85045007629 
1804	 1470.81954857078 
1805	 1492.38897680725 
1806	 1517.79878032972 
1807	 1531.42272750639 
1808	 1536.50592542321 
1809	 1521.56221605925 
1810	 1519.12178498921 
1811	 1528.04775847519 
1812	 1540.00233506897 
1813	 1565.52493742318 
1814	 1582.71274191052 
1815	 1597.48221132997 
1816	 1615.18485762626 
1817	 1633.46884829611 
1818	 1646.0561292015 
1819	 1673.57288779913 
1820	 1705.53634000374 
1821	 1721.05576191602 
1822	 1735.65906116502 
1823	 1738.82535933136 
1824	 1721.11345220517 
1825	 1713.67248750884 
1826	 1697.31833096825 
1827	 1693.98692632988 
1828	 1700.64967151399 
1829	 1704.35102911022 
1830	 1711.18711362469 
1831	 1729.26514327434 
1832	 1735.39869267295 
1833	 1734.87087567558 
1834	 1737.59031924713 
1835	 1737.23949162013 
1836	 1739.57446208915 
1837	 1740.53970294024 
1838	 1746.14045607946 
1839	 1757.88529653104 
1840	 1763.95024762501 
1841	 1774.78415919468 
1842	 1793.84230429842 
1843	 1805.07694163269 
1844	 1812.02352393972 
1845	 1821.78210600871 
1846	 1828.46346936343 
1847	 1837.48909729931 
1848	 1845.71354595285 
1849	 1865.13290408835 
1850	 1874.36078709032 
1851	 1876.18732732269 
1852	 1882.28211285142 
1853	 1881.87854722287 
1854	 1888.01524492246 
1855	 1901.11565931329 
1856	 1908.44414751913 
1857	 1912.8061996501 
1858	 1922.63434024225 
1859	 1929.63850297991 
1860	 1947.25521410989 
1861	 1957.74181002055 
1862	 1960.68649223789 
1863	 1966.13446401831 
1864	 1956.59208108304 
1865	 1969.68435916157 
1866	 2003.68396132334 
1867	 2020.24751903483 
1868	 2038.94109353487 
1869	 2057.39797024832 
1870	 2054.50538969376 
1871	 2059.95311270457 
1872	 2085.15938803682 
1873	 2105.51131727919 
1874	 2135.14834372638 
1875	 2163.28877436603 
1876	 2180.9433735614 
1877	 2189.35265498122 
1878	 2198.0439425937 
1879	 2205.8701085729 
1880	 2209.36723333096 
1881	 2217.45120020212 
1882	 2229.1637528607 
1883	 2229.64693025303 
1884	 2227.67664556455 
1885	 2222.38485648732 
1886	 2203.51992394481 
1887	 2180.92073396584 
1888	 2150.45367187569 
1889	 2118.66748225295 
1890	 2085.34561209435 
1891	 2056.68315237209 
1892	 2021.27838335599 
1893	 1987.37681043458 
1894	 1957.18500154675 
1895	 1912.75654560267 
1896	 1887.44035012049 
1897	 1859.4857683704 
1898	 1820.56978412747 
1899	 1801.92076852807 
1900	 1798.47743728231 
1901	 1788.38264145068 
1902	 1793.55187391299 
1903	 1812.22099652485 
1904	 1822.54018559839 
1905	 1839.97873421358 
1906	 1857.02868590184 
1907	 1866.06397331039 
1908	 1885.25332403265 
1909	 1912.49043702277 
1910	 1933.46382934824 
1911	 1956.80763073717 
1912	 1982.2857558782 
1913	 2005.53288442224 
1914	 2026.31932690706 
1915	 2062.37736845078 
1916	 2086.38375616772 
1917	 2106.95216259897 
1918	 2120.92891205369 
1919	 2132.24921367168 
1920	 2138.28615468647 
1921	 2142.95447642179 
1922	 2141.46337004079 
1923	 2144.84348327201 
1924	 2146.230873047 
1925	 2145.80906199782 
1926	 2151.30353168481 
1927	 2150.36737367124 
1928	 2138.95989121427 
1929	 2126.11899755571 
1930	 2116.70128368161 
1931	 2106.36291054203 
1932	 2094.06612318035 
1933	 2084.17506965049 
1934	 2070.44623053562 
1935	 2047.77669737312 
1936	 2034.47259186724 
1937	 2024.76086446518 
1938	 2016.30159549698 
1939	 2009.69553263253 
1940	 2001.07464925924 
1941	 2012.22806001921 
1942	 2031.32629460009 
1943	 2055.80214559874 
1944	 2104.76131874057 
1945	 2133.15914493524 
1946	 2151.85819100652 
1947	 2177.27574365626 
1948	 2198.17244305123 
1949	 2224.81238256434 
1950	 2262.45906661219 
1951	 2292.89355158875 
1952	 2327.62796201751 
1953	 2350.85912442819 
1954	 2369.46771394553 
1955	 2385.23539331461 
1956	 2388.48744998835 
1957	 2374.22732302969 
1958	 2372.98917130556 
1959	 2358.91354712371 
1960	 2364.69498996197 
1961	 2395.58706148229 
1962	 2408.38116429561 
1963	 2425.07704099382 
1964	 2433.8994812582 
1965	 2437.17464529196 
1966	 2424.70327751438 
1967	 2417.80152248828 
1968	 2407.14615355298 
1969	 2400.84299478832 
1970	 2393.70551785508 
1971	 2386.52953316509 
1972	 2380.70098528953 
1973	 2376.99402398336 
1974	 2373.01117420747 
1975	 2368.72687738232 
1976	 2371.50206935023 
1977	 2367.44202935868 
1978	 2361.7234056234 
1979	 2348.26310770253 
1980	 2334.80721836294 
1981	 2313.95663493226 
1982	 2303.70925040617 
1983	 2293.1762757613 
1984	 2289.98031617483 
1985	 2300.31212086829 
1986	 2300.09205234992 
1987	 2303.10394763445 
1988	 2295.94484964342 
1989	 2276.32889989099 
1990	 2262.93129340716 
1991	 2250.87655466821 
1992	 2229.97550651153 
1993	 2217.10236605258 
1994	 2202.59984092992 
1995	 2188.67788992339 
1996	 2177.0350552649 
1997	 2157.81940064763 
1998	 2134.43140710349 
1999	 2114.90883047115 
2000	 2081.9374520027 
2001	 2067.18274505063 
2002	 2069.7212258774 
2003	 2063.87034968415 
2004	 2058.85038100756 
2005	 2064.48105327068 
2006	 2054.5374725479 
2007	 2037.7519349504 
2008	 2018.24310309056 
2009	 1988.65428376716 
2010	 1968.53557647722 
2011	 1947.55196703263 
2012	 1930.49085657168 
2013	 1918.43400015663 
2014	 1906.82794132125 
2015	 1897.79893082705 
2016	 1886.54011326563 
2017	 1882.37341260885 
2018	 1869.10141634428 
2019	 1848.52503251763 
2020	 1828.44889154657 
2021	 1799.10863816264 
2022	 1775.08374897734 
2023	 1765.50183166426 
2024	 1751.27311709299 
2025	 1740.06972484919 
2026	 1733.22873764523 
2027	 1728.78588001554 
2028	 1726.31718710339 
2029	 1724.04977273675 
2030	 1730.45045341189 
2031	 1729.87193015201 
2032	 1727.27496886938 
2033	 1717.7406757429 
2034	 1702.82241119174 
2035	 1694.20934534619 
2036	 1684.63543653603 
2037	 1664.38885868955 
2038	 1654.93163287007 
2039	 1649.04840206445 
2040	 1635.08614253188 
2041	 1627.74305263518 
2042	 1613.54499760556 
2043	 1588.56311338707 
2044	 1573.78383289644 
2045	 1560.86880341884 
2046	 1549.41367452664 
2047	 1546.81837785863 
2048	 1540.06348991234 
2049	 1531.67192536082 
2050	 1520.03813049446 
2051	 1515.48033144198 
2052	 1509.16084373594 
2053	 1501.71398178963 
2054	 1500.49628209709 
2055	 1494.26885552449 
2056	 1493.54475710352 
2057	 1489.62552190294 
2058	 1481.98397332193 
2059	 1478.18312593886 
2060	 1471.95798933297 
2061	 1468.2608610851 
2062	 1472.78284373291 
2063	 1469.2603184935 
2064	 1462.85098073166 
2065	 1455.70567794504 
2066	 1446.93920612812 
2067	 1437.06253543243 
2068	 1433.08742941502 
2069	 1443.64533453986 
2070	 1444.8864157337 
2071	 1446.45888826632 
2072	 1449.95000930191 
2073	 1426.52921782564 
2074	 1406.31770065446 
2075	 1393.15423349842 
2076	 1380.44685362653 
2077	 1370.86197943318 
2078	 1363.70574627716 
2079	 1362.09520025419 
2080	 1352.7140057663 
2081	 1339.18187173448 
2082	 1325.48294855065 
2083	 1319.25622001775 
2084	 1304.4226982678 
2085	 1298.29359145361 
2086	 1291.19218416054 
2087	 1260.4060456827 
2088	 1246.1415301403 
2089	 1237.16984256166 
2090	 1215.69708184254 
2091	 1210.88665523963 
2092	 1200.50240904212 
2093	 1177.36668762595 
2094	 1152.68672238131 
2095	 1130.78542679459 
2096	 1104.74318572291 
2097	 1083.6875856288 
2098	 1063.62631736896 
2099	 1054.87773064806 
2100	 1039.29581119649 
2101	 1026.26786499012 
2102	 1024.73993710305 
2103	 1013.88345126227 
2104	 1004.28470862664 
2105	 992.675455087963 
2106	 966.84273945729 
2107	 942.869797942491 
2108	 917.131047990845 
2109	 888.194497650306 
2110	 854.073204271279 
2111	 816.918150212871 
2112	 782.611183307544 
2113	 748.999240461807 
2114	 721.739485889891 
2115	 701.448832410038 
2116	 681.268750949263 
2117	 665.529652226305 
2118	 646.751835770159 
2119	 627.086705804068 
2120	 614.480679574783 
2121	 597.579377105469 
2122	 587.414920678368 
2123	 577.122102941534 
2124	 561.024668768929 
2125	 533.578147094832 
2126	 495.05488087048 
2127	 463.088728490288 
2128	 425.020030515349 
2129	 387.922630838661 
2130	 370.261581578765 
2131	 331.731619291547 
2132	 290.966576000956 
2133	 266.717718628188 
2134	 229.321396990987 
2135	 209.593726108986 
2136	 214.360745798552 
2137	 205.281738960392 
2138	 200.813879335845 
2139	 191.732356796671 
2140	 174.952974787961 
2141	 158.655819633946 
2142	 150.871250298669 
2143	 142.754554520681 
2144	 144.215857163953 
2145	 144.113634564013 
2146	 142.233334205875 
2147	 145.509267972416 
2148	 154.081486156459 
2149	 159.420553623791 
2150	 169.593868064732 
2151	 179.36700379124 
2152	 172.370383066749 
2153	 171.841882851483 
2154	 172.062015365007 
2155	 164.718036390234 
2156	 165.218394595737 
2157	 171.869453212805 
2158	 172.088460402341 
2159	 169.420818686169 
2160	 167.799157806082 
2161	 156.772600789588 
2162	 152.222967384042 
2163	 149.906473581016 
2164	 157.175992551033 
2165	 158.488307292674 
2166	 172.241266163899 
2167	 186.497213343819 
2168	 187.86686680687 
2169	 194.491796916612 
2170	 204.676878602451 
2171	 213.94433102798 
2172	 223.862555885694 
2173	 238.728444981359 
2174	 255.116340543327 
2175	 254.661961830315 
2176	 253.097167704375 
2177	 251.271547590946 
2178	 244.80832975834 
2179	 240.160600058314 
2180	 243.543709471894 
2181	 249.957423330257 
2182	 256.284397249208 
2183	 270.944090136336 
2184	 301.058864070089 
2185	 318.827871508065 
2186	 334.380270849695 
2187	 349.823719725528 
2188	 360.837548298705 
2189	 376.995191074958 
2190	 390.564023969467 
2191	 409.251971984348 
2192	 423.871215431985 
2193	 432.653430520653 
2194	 436.748867140576 
2195	 440.709926884411 
2196	 445.919821802901 
2197	 440.772995426009 
2198	 443.278573557684 
2199	 449.799841246999 
2200	 450.147735744346 
2201	 457.014265073772 
2202	 467.133922341395 
2203	 474.229046095382 
2204	 477.711162162732 
2205	 480.552848062158 
2206	 481.062590670125 
2207	 477.058441389519 
2208	 473.102831622443 
2209	 470.771894994946 
2210	 471.038431628761 
2211	 472.58299152136 
2212	 475.859271456225 
2213	 487.664726570625 
2214	 485.207927262466 
2215	 475.782857897529 
2216	 467.64643814351 
2217	 447.413337005773 
2218	 441.644049688539 
2219	 443.539836227721 
2220	 444.922130822774 
2221	 456.142396138159 
2222	 462.259417282278 
2223	 457.679102860244 
2224	 452.3423228282 
2225	 433.106923438924 
2226	 410.397584639351 
2227	 398.238435942211 
2228	 381.693762143998 
2229	 381.973266691937 
2230	 388.827298167734 
2231	 387.42415318499 
2232	 394.077067856003 
2233	 386.476942576014 
2234	 380.762540071828 
2235	 379.05631157434 
2236	 366.655432631865 
2237	 363.96166722484 
2238	 354.04820487568 
2239	 340.538677532731 
2240	 336.235418521359 
2241	 331.85641296641 
2242	 325.747426191757 
2243	 320.523839510359 
2244	 318.020276754894 
2245	 317.519466965605 
2246	 318.357006003751 
2247	 315.738778119168 
2248	 310.96825657814 
2249	 305.160206736298 
2250	 294.170045227334 
2251	 289.747497930897 
2252	 297.185724165836 
2253	 293.431372490461 
2254	 286.593112832963 
2255	 278.12505509364 
2256	 261.906332961262 
2257	 245.123990881664 
2258	 233.803330718799 
2259	 223.283468754551 
2260	 231.648493688202 
2261	 236.003298504948 
2262	 238.804400243167 
2263	 238.548502171366 
2264	 211.00963145944 
2265	 191.458245945499 
2266	 182.760929751264 
2267	 166.560632918528 
2268	 159.802677598713 
2269	 146.339136337712 
2270	 123.911764261086 
2271	 112.053361370595 
2272	 101.677627998428 
2273	 92.6743091266695 
2274	 83.5997722063338 
2275	 67.9382690187253 
2276	 63.064318857403 
2277	 59.9014973639767 
2278	 53.542563581648 
2279	 58.7992914377081 
2280	 53.7509217191315 
2281	 39.5268011570241 
2282	 33.5378424195569 
2283	 21.8088871538265 
2284	 12.4602752854918 
2285	 13.4619834257655 
2286	 8.55546748779195 
2287	-0.964119367138436 
2288	-0.359154837079896 
2289	 2.07218065831982 
2290	 5.4094403130293 
2291	 21.6939173902265 
2292	 23.7671816863597 
2293	 13.2448202758497 
2294	 17.5766476468377 
2295	 23.2024668577783 
2296	 28.3646142823118 
2297	 47.544613206303 
2298	 49.9036617374387 
2299	 36.8927490749117 
2300	 33.823528048209 
2301	 30.2950970878077 
2302	 30.7789977334455 
2303	 40.0502857656659 
2304	 43.3244636515686 
2305	 40.8773492595889 
2306	 39.3173621966678 
2307	 33.1022831478051 
2308	 33.8695930959636 
2309	 37.7829553705982 
2310	 48.6907173626407 
2311	 54.0341479022808 
2312	 60.0085932683967 
2313	 63.0331119019435 
2314	 56.7968260495011 
2315	 53.5388467123183 
2316	 58.0745744740449 
2317	 57.7443135371993 
2318	 54.6357100294876 
2319	 60.0163079466522 
2320	 56.4818106714164 
2321	 41.4416832826652 
2322	 41.5849398170133 
2323	 41.9402253717618 
2324	 29.7686372303406 
2325	 34.0446202935828 
2326	 30.5282536689044 
2327	 17.889655416776 
2328	 18.6024545942714 
2329	 19.3455279707652 
2330	 27.4225606052006 
2331	 35.0108578114613 
2332	 35.2456942246163 
2333	 31.1634122620723 
2334	 30.2704471885073 
2335	 29.0380143952832 
2336	 29.7115948841018 
2337	 36.4575074124583 
2338	 32.8057129534708 
2339	 32.0008047750321 
2340	 36.2394432629399 
2341	 38.4357380201453 
2342	 40.1603804880526 
2343	 31.0560547822408 
2344	 19.2826577392711 
2345	 6.84387381398481 
2346	-5.6308398050842 
2347	-9.54436037941342 
2348	-9.9313035867455 
2349	-1.0032179833971 
2350	 10.9141839032481 
2351	 23.1647671354222 
2352	 33.2540515350171 
2353	 37.2404077752153 
2354	 41.8064121257009 
2355	 36.7793616679227 
2356	 36.5027234910548 
2357	 41.4036867957549 
2358	 28.5818415464215 
2359	 24.1209200495854 
2360	 29.4561588810216 
2361	 24.3347405508385 
2362	 28.4846402804487 
2363	 35.1832902790867 
2364	 29.7520628481457 
2365	 21.4054600385728 
2366	 15.9508035054923 
2367	-0.803481928597961 
2368	-17.2050509280513 
2369	-17.8257994675559 
2370	-25.4942498399359 
2371	-21.4272233210875 
2372	-0.420670819438398 
2373	 6.53011827235756 
2374	 17.747414040848 
2375	 29.3600890721842 
2376	 16.220116490849 
2377	 9.43825065069625 
2378	 6.16017950071289 
2379	-2.79232365066155 
2380	 4.16546871442558 
2381	 14.2814847310039 
2382	 18.4187660595593 
2383	 19.8549122549779 
2384	 13.2649456231669 
2385	-4.43934628168539 
2386	-17.0206082271721 
2387	-19.0273360235011 
2388	-12.1525351286725 
2389	-0.153133074145834 
2390	 6.95004791027493 
2391	 11.4150080334564 
2392	 14.3567449565195 
2393	 15.2170832619169 
2394	 7.85907157724149 
2395	 1.40773469458333 
2396	-9.70795883006462 
2397	-17.1622263176049 
2398	-6.46487535740205 
2399	 2.04517712280566 
2400	 14.6484917457328 
2401	 27.1835809220487 
2402	 31.1926990914812 
2403	 21.8914890674544 
2404	 9.59632036223834 
2405	-0.489567217155818 
2406	-12.1816136352568 
2407	-6.14286345326967 
2408	 4.44560828886758 
2409	 10.6814139640701 
2410	 11.51508377493 
2411	 4.60734123157577 
2412	-3.27138397684474 
2413	-6.88516637761102 
2414	-11.9237724164938 
2415	-17.9694872350909 
2416	-15.7651083908526 
2417	-20.072250019908 
2418	-15.271289839808 
2419	-0.810638544587957 
2420	 0.322570501518773 
2421	 4.16853843126333 
2422	 0.219850771347555 
2423	-1.60201278227231 
2424	 0.599250869465451 
2425	 0.510150428276379 
2426	 19.1669976101972 
2427	 22.8917476073286 
2428	 29.5986509429804 
2429	 38.533043054032 
2430	 25.8404080868825 
2431	 19.3982460566899 
2432	 9.85483833821407 
2433	 8.65196036661235 
2434	 10.8277115485699 
2435	 12.5424726892783 
2436	 19.8997490693784 
2437	 9.31582473486294 
2438	 3.13652380383874 
2439	 8.68908601296626 
2440	 5.38934214506344 
2441	 10.1583129738013 
2442	 14.9757695157243 
2443	 5.38248913450811 
2444	 2.17746211047615 
2445	-3.10875568957066 
2446	-8.440608740798 
2447	-5.7408841407929 
2448	-7.50644514017518 
2449	-8.78397763038187 
2450	-8.50424218250144 
2451	-12.6590429735764 
2452	-19.7595725171845 
2453	-21.5374343094535 
2454	-27.0475395359666 
2455	-29.581161329365 
2456	-25.684850677056 
2457	-27.8259500019031 
2458	-22.5175578506816 
2459	-23.6222313916608 
2460	-25.3355040777102 
2461	-22.1421477122057 
2462	-25.3880376960627 
2463	-17.543037292525 
2464	-10.9322163891604 
2465	-5.1590332617938 
2466	 2.50095806120311 
2467	 7.73684281535261 
2468	 15.3039541027375 
2469	 14.7210593403293 
2470	 0.330401241418656 
2471	-4.58681061893478 
2472	-8.12160415468095 
2473	-14.6001494670778 
2474	-6.81041851571498 
2475	-1.73445342763276 
2476	-1.53540695486676 
2477	 8.69617346964242 
2478	 6.31314715468846 
2479	-6.37267874294972 
2480	-13.2451028753217 
2481	-21.7879989942017 
2482	-20.8517747690937 
2483	-7.4356213863076 
2484	 1.06541310735844 
2485	 0.434925295827128 
2486	 3.04483586435516 
2487	 9.36178447709479 
2488	 12.7404437498737 
2489	 18.2485234716079 
2490	 19.7544920649564 
2491	 3.4357677810612 
2492	-17.2441542530297 
2493	-29.0684662924084 
2494	-42.2978306286711 
2495	-37.5115913909974 
2496	-26.2641970733823 
2497	-19.3802027087199 
2498	-5.86207063565821 
2499	-8.48198564271013E-02 
2500	 7.74527699695818 
