Wavelength	3mm_whiteABS00000.asd
350	-0.858851016126413 
351	-0.535356610128541 
352	-0.248739802663385 
353	 0.269085577973994 
354	 0.977089956467446 
355	 1.08076215025999 
356	 0.306569661124669 
357	 0.292323390597775 
358	-0.225844512811556 
359	-1.04487423464504 
360	-0.771954057680317 
361	-0.290092161471334 
362	 0.23050876059457 
363	 0.636237965657217 
364	 0.168676094308925 
365	-0.35675099526521 
366	-0.653527743464587 
367	-1.172050126681 
368	-0.872797336963662 
369	-0.255116356148958 
370	-8.76689868966266E-02 
371	 0.931386637830716 
372	 1.76718282176439 
373	 1.79412088814066 
374	 1.55968612348778 
375	-5.03593110455722E-03 
376	-1.61791997781015 
377	-1.07655978628275 
378	-1.15781861688482 
379	-1.14326022674584 
380	-0.464245558142599 
381	-0.606133013397279 
382	-0.756269849094297 
383	-0.476965168986569 
384	 0.34265793399267 
385	-0.435425866766568 
386	-1.41854246251155 
387	-0.897501509924756 
388	-0.461506444652248 
389	 0.507846245056182 
390	 1.57218367682667 
391	 0.394816204319158 
392	-0.704805352529869 
393	-0.498463296180156 
394	 1.23756433936649 
395	-0.936742582551218 
396	-1.91437931623143 
397	 1.02770034033122 
398	 1.16417106082257 
399	 1.39156356082518 
400	 1.96404722365414 
401	 1.34979178081949 
402	 1.94257780291135 
403	 2.87178177077782 
404	 2.88348227832703 
405	 2.54565835544406 
406	 4.05873338867128 
407	 6.64730796572572 
408	 4.53926029596243 
409	 4.99961033245895 
410	 6.93838761782805 
411	 6.30360810916855 
412	 6.83801162137365 
413	 9.1593159717751 
414	 12.2376426877299 
415	 11.441345400542 
416	 11.5031594038725 
417	 13.4213708787029 
418	 15.0012880661117 
419	 16.7469131390886 
420	 18.3819939562201 
421	 19.6336288779361 
422	 21.180921408461 
423	 22.3148336901062 
424	 23.0609619974749 
425	 25.189450770841 
426	 26.165420041059 
427	 27.2222748710589 
428	 31.2145503695774 
429	 31.6728067145206 
430	 32.0750829433513 
431	 35.6155142315142 
432	 37.4243338465375 
433	 38.3279886599402 
434	 39.3105345571774 
435	 41.5535573071456 
436	 43.5569406580029 
437	 44.9423275561979 
438	 45.9830027265803 
439	 48.992827528557 
440	 51.2304946115445 
441	 51.3514926749144 
442	 53.521060548305 
443	 55.415197516884 
444	 56.4922736988754 
445	 57.7052335423469 
446	 58.9890356765621 
447	 61.289890805235 
448	 65.0589357204402 
449	 66.173667037782 
450	 66.6190352497638 
451	 67.9569661943869 
452	 69.8326920380344 
453	 72.266000086469 
454	 74.5188530788779 
455	 75.3876147138998 
456	 77.3074174915586 
457	 79.7345862648406 
458	 81.6951463193364 
459	 83.9208179085188 
460	 85.8345648033024 
461	 87.4998802967411 
462	 90.3395245243317 
463	 92.9863666732802 
464	 95.38566947961 
465	 98.0534391794077 
466	 99.3694238404628 
467	 101.298552641864 
468	 105.380824017511 
469	 108.624315375721 
470	 111.240224326801 
471	 113.988130267851 
472	 118.666842449264 
473	 121.028539333439 
474	 122.553027005157 
475	 127.172996979044 
476	 131.855508860646 
477	 135.182506264499 
478	 137.131723101389 
479	 141.556225463889 
480	 146.784454700427 
481	 151.517837473174 
482	 154.830798219208 
483	 159.295071136931 
484	 164.130885900604 
485	 167.408786756003 
486	 172.337881299331 
487	 178.407846172817 
488	 184.513065548625 
489	 189.559185502398 
490	 195.543577874747 
491	 202.362713642315 
492	 207.003830935361 
493	 212.930477947598 
494	 219.668974312612 
495	 225.514668416562 
496	 234.399878992807 
497	 242.48818476533 
498	 247.127932589104 
499	 253.304283223813 
500	 260.415410701276 
501	 268.039649052853 
502	 276.016087150366 
503	 284.370046115128 
504	 292.856364822434 
505	 301.074939977844 
506	 308.224645436614 
507	 315.494464423034 
508	 323.765844822913 
509	 331.627428690098 
510	 340.592923899469 
511	 351.212986539183 
512	 363.026750705817 
513	 372.747250231182 
514	 381.173065874438 
515	 390.886732025611 
516	 400.574676439496 
517	 410.521863870462 
518	 421.022852054732 
519	 431.599888223947 
520	 442.51822039889 
521	 453.486905582169 
522	 463.181543843015 
523	 474.328984931381 
524	 486.311799708517 
525	 497.080587128772 
526	 508.645528806236 
527	 520.776314667615 
528	 532.739930302207 
529	 543.169368186089 
530	 555.279471036617 
531	 569.287663076753 
532	 580.28202448651 
533	 591.809022075612 
534	 603.696856537026 
535	 614.18963757249 
536	 626.247155022479 
537	 638.407174406661 
538	 649.230499635068 
539	 661.740283998563 
540	 674.773227191297 
541	 686.902691280268 
542	 695.979492409162 
543	 706.150419230432 
544	 717.774862721743 
545	 729.002435439004 
546	 741.361079933619 
547	 753.738007752631 
548	 764.900953564563 
549	 776.639751437839 
550	 786.853625435557 
551	 795.357761745277 
552	 806.623797635518 
553	 817.527595217322 
554	 827.668597645487 
555	 838.453804692027 
556	 848.762326132411 
557	 858.635442077909 
558	 868.224701587647 
559	 876.045829188654 
560	 884.299218835955 
561	 894.106620906232 
562	 903.631830150038 
563	 910.494395311062 
564	 915.02785886451 
565	 920.238344732512 
566	 925.150982459174 
567	 929.337154808318 
568	 932.455911923582 
569	 934.545578152701 
570	 935.067238459306 
571	 934.470736722681 
572	 936.666451792994 
573	 936.963469013941 
574	 934.924203458401 
575	 935.23816659865 
576	 935.009480963548 
577	 932.878595860014 
578	 928.242090073806 
579	 924.113435293099 
580	 919.296816664434 
581	 913.193786848293 
582	 910.144926474574 
583	 907.885027629037 
584	 905.088889502868 
585	 902.007476082739 
586	 897.768151181721 
587	 893.008953420854 
588	 889.181015775079 
589	 885.454119085001 
590	 882.500004902491 
591	 881.099256951822 
592	 881.348147704301 
593	 881.926331861152 
594	 881.922449116445 
595	 880.709578925462 
596	 882.194659525537 
597	 887.307786739434 
598	 894.892297506151 
599	 901.173690706981 
600	 906.521670450373 
601	 912.459457669192 
602	 919.205897068563 
603	 925.866807861871 
604	 932.107991719778 
605	 939.185484924023 
606	 946.00030721234 
607	 953.944335611696 
608	 966.859949213999 
609	 980.476875369782 
610	 993.961977091852 
611	 1007.69399150907 
612	 1022.71639539962 
613	 1037.08049298802 
614	 1049.92327697939 
615	 1064.88429024919 
616	 1079.34947620792 
617	 1091.69214813573 
618	 1100.97519859084 
619	 1112.46445560987 
620	 1126.31019596151 
621	 1140.26151059256 
622	 1152.87649701556 
623	 1165.50894789337 
624	 1179.53527796826 
625	 1194.62513868026 
626	 1207.70482139198 
627	 1218.65859944794 
628	 1232.39288531634 
629	 1245.84774952861 
630	 1258.21633869169 
631	 1269.66836570327 
632	 1280.7591734822 
633	 1291.52238436452 
634	 1301.87473673303 
635	 1311.94329552011 
636	 1320.9941784741 
637	 1329.18132781963 
638	 1338.70515433423 
639	 1347.50157208686 
640	 1355.74380443178 
641	 1365.17610664875 
642	 1375.29760677349 
643	 1385.30740698568 
644	 1394.65947948922 
645	 1405.5687402592 
646	 1416.57658351021 
647	 1426.77631696378 
648	 1437.68486575976 
649	 1447.27220778778 
650	 1456.24101965451 
651	 1468.0439140202 
652	 1481.26082430952 
653	 1494.17452020418 
654	 1505.34095096196 
655	 1518.65386997235 
656	 1532.17297603428 
657	 1544.34703658311 
658	 1557.326366717 
659	 1570.68951275779 
660	 1584.22349501089 
661	 1597.9179940267 
662	 1612.71665284301 
663	 1627.55139169534 
664	 1640.63408461509 
665	 1654.23449062006 
666	 1668.87160652732 
667	 1684.42382712115 
668	 1699.73515943816 
669	 1714.72114875815 
670	 1729.85250539656 
671	 1746.77165601524 
672	 1762.20039057459 
673	 1777.39590307924 
674	 1795.99421886661 
675	 1815.248493783 
676	 1833.72003422595 
677	 1851.13217770975 
678	 1871.6532971089 
679	 1891.40141488115 
680	 1909.13842938802 
681	 1929.73096052195 
682	 1949.43719591839 
683	 1968.54343334566 
684	 1989.88183158221 
685	 2012.0203967303 
686	 2033.85150401875 
687	 2054.6447478745 
688	 2075.87205652629 
689	 2096.36972081837 
690	 2116.08788815094 
691	 2138.10877809127 
692	 2160.35366361651 
693	 2182.01057288253 
694	 2203.14890140812 
695	 2222.03424704441 
696	 2241.14522829895 
697	 2263.16487687946 
698	 2281.54763295221 
699	 2299.73097118723 
700	 2319.67021059279 
701	 2336.48584775086 
702	 2353.66529815397 
703	 2371.4281138522 
704	 2386.80615565943 
705	 2402.94766244646 
706	 2418.18100474903 
707	 2430.1147184597 
708	 2445.75076530444 
709	 2460.89800360892 
710	 2472.32197099628 
711	 2483.69250923119 
712	 2494.73008003838 
713	 2505.69980955025 
714	 2517.42979057711 
715	 2531.20144963368 
716	 2544.83637320814 
717	 2555.36121340537 
718	 2568.0986244517 
719	 2581.36710856238 
720	 2593.40946828493 
721	 2605.66655014943 
722	 2617.67940571033 
723	 2628.95543695761 
724	 2638.84132172837 
725	 2648.64291697683 
726	 2659.14658612394 
727	 2670.58655131091 
728	 2679.24178777513 
729	 2687.91808516772 
730	 2698.66628710146 
731	 2707.00083763472 
732	 2716.82725051554 
733	 2728.63589282438 
734	 2738.36804803739 
735	 2746.32587535549 
736	 2753.97909395774 
737	 2763.12601343466 
738	 2769.2841545198 
739	 2774.60581982735 
740	 2781.32590852056 
741	 2788.12456001877 
742	 2794.36744016642 
743	 2799.96552401604 
744	 2805.56411810433 
745	 2810.68305065695 
746	 2814.79478471438 
747	 2817.52696367812 
748	 2820.93871228738 
749	 2824.50280455033 
750	 2827.72188018067 
751	 2831.95479408171 
752	 2835.50463404671 
753	 2837.95173404754 
754	 2840.47709193695 
755	 2843.88536829178 
756	 2846.53079085601 
757	 2846.06096338916 
758	 2846.11012578751 
759	 2845.3815783938 
760	 2843.04649896599 
761	 2842.0777696562 
762	 2841.95252365563 
763	 2842.5977892639 
764	 2844.60197891779 
765	 2845.38020596879 
766	 2845.55172924012 
767	 2846.62412946359 
768	 2845.54303564022 
769	 2843.34206304524 
770	 2841.1739217522 
771	 2839.09497421196 
772	 2835.21548875553 
773	 2830.28503202271 
774	 2827.87303333479 
775	 2825.66412287762 
776	 2822.5434962164 
777	 2818.00875715185 
778	 2813.96429235651 
779	 2808.77688548549 
780	 2801.8671330796 
781	 2796.18725990658 
782	 2790.60612291011 
783	 2783.97910956428 
784	 2775.0111399544 
785	 2766.85926854626 
786	 2759.5107668594 
787	 2752.09790533139 
788	 2744.7812193811 
789	 2736.4555340745 
790	 2727.54567434678 
791	 2722.47686676828 
792	 2713.81494221438 
793	 2702.1684388873 
794	 2693.07260500661 
795	 2682.85663258871 
796	 2671.7286064913 
797	 2660.75947956586 
798	 2651.28271932678 
799	 2641.28222180399 
800	 2630.38227734071 
801	 2621.04900203766 
802	 2611.2562761941 
803	 2601.18545228134 
804	 2591.73296630843 
805	 2580.33377359451 
806	 2568.13796909745 
807	 2556.43071544871 
808	 2544.79806472223 
809	 2534.12505700844 
810	 2523.836898834 
811	 2511.70136182496 
812	 2499.89343214266 
813	 2488.27878861277 
814	 2476.07340012849 
815	 2463.41084942427 
816	 2450.63651564628 
817	 2438.34843130764 
818	 2428.03359638345 
819	 2416.50392901123 
820	 2403.45187661462 
821	 2390.48121164445 
822	 2376.55253798154 
823	 2362.33806601656 
824	 2348.97184438847 
825	 2338.19596562427 
826	 2326.74007265918 
827	 2313.57016061041 
828	 2300.98029921164 
829	 2289.55485660687 
830	 2276.20984438793 
831	 2257.42110030549 
832	 2242.52904482764 
833	 2228.02817951915 
834	 2211.14553468007 
835	 2195.14153896345 
836	 2182.48552843925 
837	 2172.22450733308 
838	 2160.58190544123 
839	 2153.12133490716 
840	 2146.31002283207 
841	 2136.01876937254 
842	 2126.8515360481 
843	 2116.13820786541 
844	 2102.83882994 
845	 2088.55395319874 
846	 2075.98465655688 
847	 2064.44576353805 
848	 2051.70886807433 
849	 2037.41340490017 
850	 2023.41834824613 
851	 2010.54179957036 
852	 1996.0561229516 
853	 1982.34026302046 
854	 1969.76811121048 
855	 1957.20455499615 
856	 1942.48357351756 
857	 1927.47377235215 
858	 1913.63767905901 
859	 1896.70170646272 
860	 1877.63996324395 
861	 1858.75593106723 
862	 1844.11731050465 
863	 1827.86116985333 
864	 1809.40123672372 
865	 1789.97817504584 
866	 1769.85315428265 
867	 1748.94750333925 
868	 1727.79509280474 
869	 1708.48813927201 
870	 1688.54727202777 
871	 1668.13723517341 
872	 1648.84534858814 
873	 1631.51516615161 
874	 1617.61603726593 
875	 1607.66402732061 
876	 1599.79042196602 
877	 1593.02981471769 
878	 1586.74517175223 
879	 1580.66512268335 
880	 1576.09060698004 
881	 1573.58094020648 
882	 1572.57949309958 
883	 1569.20350204238 
884	 1565.32540464846 
885	 1560.67472366334 
886	 1552.22383294287 
887	 1544.79011631109 
888	 1537.27047260614 
889	 1527.48990450953 
890	 1518.50206199578 
891	 1507.94407064213 
892	 1495.39522271421 
893	 1483.98932729545 
894	 1472.50799198599 
895	 1460.50144202578 
896	 1447.84741860101 
897	 1435.21710646918 
898	 1423.61069321673 
899	 1412.64004258976 
900	 1398.63661737651 
901	 1387.32461195966 
902	 1377.3778962382 
903	 1364.50812516467 
904	 1351.97059738938 
905	 1339.19279095921 
906	 1325.76121561601 
907	 1312.83036312058 
908	 1299.65628029767 
909	 1286.42531077507 
910	 1273.57527377861 
911	 1257.32260191413 
912	 1241.86433492655 
913	 1230.08017626224 
914	 1218.05313946234 
915	 1205.54390076668 
916	 1192.75974381643 
917	 1180.30779129255 
918	 1167.95237307037 
919	 1155.61815953291 
920	 1143.62161836908 
921	 1133.40365984402 
922	 1123.93827982194 
923	 1114.18163557 
924	 1103.26434866866 
925	 1094.41769280061 
926	 1086.40463180229 
927	 1077.72470306902 
928	 1068.85407560502 
929	 1059.98451461789 
930	 1051.20428454746 
931	 1042.48632423345 
932	 1033.39764687066 
933	 1023.62671052868 
934	 1013.55513941044 
935	 1005.6559042934 
936	 996.768922298323 
937	 987.759561317129 
938	 981.955027823724 
939	 972.976663563776 
940	 962.764778134031 
941	 954.001204332052 
942	 947.337597243096 
943	 939.468604850075 
944	 929.860093995034 
945	 919.94898411556 
946	 911.411269476206 
947	 902.098416691573 
948	 891.388441800082 
949	 884.334507009135 
950	 875.811329167886 
951	 866.088240185308 
952	 857.943901442437 
953	 847.989786372463 
954	 837.971194362948 
955	 829.214454483177 
956	 821.097639995942 
957	 811.308392299175 
958	 800.516068628708 
959	 790.523142867035 
960	 780.047066292382 
961	 769.972800581665 
962	 760.579065614235 
963	 750.793703934753 
964	 742.813708112237 
965	 734.012345975248 
966	 1230.64028977246 
967	 1246.52507367308 
968	 1257.81091874266 
969	 1273.10788109676 
970	 1289.30487193361 
971	 1308.18340733943 
972	 1330.10625580674 
973	 1352.35342219654 
974	 1377.95151692072 
975	 1400.97840585159 
976	 1424.43897298345 
977	 1444.5311386487 
978	 1464.54968565728 
979	 1486.62384977099 
980	 1504.62468841188 
981	 1524.01602669246 
982	 1545.40285923949 
983	 1564.21427929813 
984	 1580.87029351902 
985	 1596.24812020416 
986	 1610.60893641167 
987	 1618.98306773812 
988	 1633.13850634475 
989	 1653.04477469887 
990	 1666.04148771813 
991	 1674.97315449193 
992	 1688.39724013718 
993	 1700.67610406765 
994	 1713.52466884806 
995	 1729.58618957468 
996	 1745.50244427618 
997	 1758.05396846688 
998	 1768.41894578662 
999	 1780.88290702397 
1000	 1791.19692724939 
1001	 1799.07915189358 
1002	 1808.8495014853 
1003	 1822.60962793718 
1004	 1840.0236754511 
1005	 1853.61792301279 
1006	 1868.95852763607 
1007	 1879.87545712818 
1008	 1886.32748865725 
1009	 1891.52604290279 
1010	 1899.88485619545 
1011	 1911.76444050053 
1012	 1924.7618333068 
1013	 1937.74595357012 
1014	 1950.91379803254 
1015	 1962.89641970131 
1016	 1972.7829142551 
1017	 1981.29936049457 
1018	 1989.73384200474 
1019	 1996.63922004415 
1020	 2002.99478158768 
1021	 2013.92110832002 
1022	 2026.07691811181 
1023	 2037.07804835782 
1024	 2049.11342475303 
1025	 2062.14507214567 
1026	 2069.98461270247 
1027	 2077.3977085934 
1028	 2087.17925443719 
1029	 2098.13420708455 
1030	 2112.37998637469 
1031	 2125.7107206944 
1032	 2138.13490927998 
1033	 2150.05898750048 
1034	 2160.76244465704 
1035	 2172.80002230945 
1036	 2184.33791993197 
1037	 2196.19685101712 
1038	 2209.81735181185 
1039	 2221.86999980299 
1040	 2233.33624403914 
1041	 2243.69218250359 
1042	 2255.85805945974 
1043	 2268.00020390394 
1044	 2280.24748230813 
1045	 2293.67223637388 
1046	 2306.97144963474 
1047	 2317.43199221797 
1048	 2326.39443185622 
1049	 2338.44535244513 
1050	 2351.55767452514 
1051	 2361.63964860172 
1052	 2372.54721418831 
1053	 2384.92139889968 
1054	 2392.68336651406 
1055	 2400.76575854151 
1056	 2411.80060411757 
1057	 2421.94424996222 
1058	 2430.06274023048 
1059	 2440.31749042843 
1060	 2453.6583807918 
1061	 2463.8840198419 
1062	 2472.4932102652 
1063	 2482.11969464439 
1064	 2491.5116669093 
1065	 2499.74566609564 
1066	 2509.90982092499 
1067	 2520.9347559706 
1068	 2532.43719503202 
1069	 2548.71782571587 
1070	 2563.27844764854 
1071	 2576.17465095774 
1072	 2592.55055306395 
1073	 2601.56725227643 
1074	 2612.84605739417 
1075	 2625.15301496848 
1076	 2638.70575004719 
1077	 2652.5467060288 
1078	 2665.31090408376 
1079	 2679.44257339293 
1080	 2690.32048992223 
1081	 2694.73812943239 
1082	 2706.10926807004 
1083	 2719.50719458711 
1084	 2735.53147594896 
1085	 2753.72737617951 
1086	 2771.07108681528 
1087	 2785.72433081826 
1088	 2799.0403250696 
1089	 2812.51336252286 
1090	 2827.84137534018 
1091	 2843.88303432484 
1092	 2861.04281368567 
1093	 2877.89396456565 
1094	 2894.31321792462 
1095	 2913.26884755732 
1096	 2934.8845624054 
1097	 2954.09200021442 
1098	 2974.45786368455 
1099	 2993.8217331385 
1100	 3009.07597517773 
1101	 3027.41333054058 
1102	 3049.22686105763 
1103	 3069.24191247755 
1104	 3088.55358241877 
1105	 3108.77954220252 
1106	 3129.89335490803 
1107	 3149.26814434601 
1108	 3170.70711608638 
1109	 3195.15542314043 
1110	 3213.26754044331 
1111	 3229.36856296916 
1112	 3242.9534600477 
1113	 3252.76392220626 
1114	 3260.98423037018 
1115	 3267.64407129965 
1116	 3272.53455370317 
1117	 3275.0366632663 
1118	 3275.21601203868 
1119	 3276.91370504746 
1120	 3270.56796696337 
1121	 3260.20569439371 
1122	 3244.32238855091 
1123	 3222.92285063983 
1124	 3195.76759982928 
1125	 3164.92308820885 
1126	 3127.3668967801 
1127	 3079.72814154879 
1128	 3023.19369880549 
1129	 2964.02785350968 
1130	 2895.10851812786 
1131	 2827.45799885975 
1132	 2756.61810627088 
1133	 2685.21887169544 
1134	 2605.60350943752 
1135	 2537.89195255644 
1136	 2471.77615722634 
1137	 2412.71502979708 
1138	 2358.70550874908 
1139	 2313.37629527502 
1140	 2268.41540348712 
1141	 2240.37052551638 
1142	 2220.59857219232 
1143	 2218.04219833228 
1144	 2231.79843386048 
1145	 2256.32978344433 
1146	 2298.07786196751 
1147	 2347.30526570403 
1148	 2406.27422382603 
1149	 2475.65799785389 
1150	 2552.99865388507 
1151	 2641.2777881995 
1152	 2733.15472199568 
1153	 2837.46082856129 
1154	 2935.08048010044 
1155	 3038.64663394555 
1156	 3134.06038030451 
1157	 3228.23901134692 
1158	 3314.94588859624 
1159	 3401.16952970761 
1160	 3473.84591859135 
1161	 3535.86799975217 
1162	 3593.56235091918 
1163	 3640.98405693385 
1164	 3684.70701465427 
1165	 3726.96673179345 
1166	 3758.90850524357 
1167	 3782.29360281797 
1168	 3798.33383242609 
1169	 3807.95846811799 
1170	 3815.9025948219 
1171	 3823.90215841697 
1172	 3830.48117354484 
1173	 3834.79346270665 
1174	 3838.05859888891 
1175	 3838.33167751073 
1176	 3837.03678128949 
1177	 3831.14179626689 
1178	 3822.77350727028 
1179	 3810.37860584139 
1180	 3794.62643008869 
1181	 3774.00325238782 
1182	 3748.98173115413 
1183	 3721.279155627 
1184	 3686.98783532413 
1185	 3652.88400526005 
1186	 3615.37026666819 
1187	 3579.68343919602 
1188	 3544.44058681945 
1189	 3507.52568578572 
1190	 3469.88073203519 
1191	 3432.6039934961 
1192	 3392.5243019893 
1193	 3357.25598610513 
1194	 3327.34133841099 
1195	 3298.28164821489 
1196	 3274.80314907292 
1197	 3255.43141674302 
1198	 3239.42114456569 
1199	 3227.90079473026 
1200	 3219.40911181257 
1201	 3212.33484531701 
1202	 3213.52406556279 
1203	 3219.22342129848 
1204	 3231.03703903539 
1205	 3250.88538894767 
1206	 3272.6533733487 
1207	 3300.52281990956 
1208	 3329.4886654666 
1209	 3359.69167563596 
1210	 3395.88175488543 
1211	 3436.28495887093 
1212	 3478.20895298865 
1213	 3528.6592631828 
1214	 3582.61142197893 
1215	 3635.30673542891 
1216	 3687.592362825 
1217	 3740.59895100541 
1218	 3796.55013158321 
1219	 3856.12815902493 
1220	 3919.26884442172 
1221	 3982.61233015939 
1222	 4048.28780940027 
1223	 4113.0645502961 
1224	 4179.16036075526 
1225	 4243.84517176519 
1226	 4307.13510935535 
1227	 4371.66791096686 
1228	 4436.60952727108 
1229	 4501.45257396706 
1230	 4569.35610323723 
1231	 4632.56821898454 
1232	 4693.56599205138 
1233	 4753.74936803885 
1234	 4811.34450335033 
1235	 4867.13940729932 
1236	 4922.78662647832 
1237	 4975.60079328846 
1238	 5022.91153879355 
1239	 5069.85002437506 
1240	 5113.04244649886 
1241	 5153.84346499169 
1242	 5196.93672917335 
1243	 5239.31462103062 
1244	 5285.18581689733 
1245	 5330.16282016713 
1246	 5366.91996028528 
1247	 5403.92892325858 
1248	 5436.37129992443 
1249	 5462.14922482434 
1250	 5490.39961206007 
1251	 5517.94486758424 
1252	 5546.31962541883 
1253	 5576.48344064143 
1254	 5603.38256151526 
1255	 5629.71550330689 
1256	 5654.61794289867 
1257	 5675.34340617654 
1258	 5697.63944109317 
1259	 5721.2831251825 
1260	 5743.59135391267 
1261	 5764.69535218469 
1262	 5785.81550758499 
1263	 5808.69559826154 
1264	 5830.57362481474 
1265	 5849.66845454945 
1266	 5866.89979484091 
1267	 5883.50096411573 
1268	 5897.02728895393 
1269	 5911.41558511002 
1270	 5928.29405959463 
1271	 5940.57467656314 
1272	 5950.70383828546 
1273	 5958.59895401452 
1274	 5963.61926650919 
1275	 5968.60659668768 
1276	 5971.13432487863 
1277	 5973.52293361227 
1278	 5975.11794353565 
1279	 5972.76203978994 
1280	 5965.72772924389 
1281	 5961.20520508927 
1282	 5956.07126580507 
1283	 5948.10156009458 
1284	 5940.71419271186 
1285	 5930.74316412932 
1286	 5914.38920913819 
1287	 5901.57923693372 
1288	 5890.26977301507 
1289	 5878.7217174199 
1290	 5863.05655221553 
1291	 5853.43016868916 
1292	 5842.20886754684 
1293	 5827.31917955532 
1294	 5818.80605749201 
1295	 5811.35702289578 
1296	 5803.50141338674 
1297	 5799.19225779506 
1298	 5793.55198988113 
1299	 5786.92339265801 
1300	 5786.01564333813 
1301	 5789.23994316412 
1302	 5794.11771064984 
1303	 5800.74168645914 
1304	 5807.41987493622 
1305	 5812.1786185983 
1306	 5820.3968300488 
1307	 5832.54315201804 
1308	 5843.02536237802 
1309	 5852.79293309607 
1310	 5859.47466321441 
1311	 5860.8773231298 
1312	 5863.49139634331 
1313	 5863.62528428847 
1314	 5865.97166910358 
1315	 5870.42566064626 
1316	 5874.28469882605 
1317	 5879.0759401148 
1318	 5880.88725043896 
1319	 5881.48210891812 
1320	 5880.26611254091 
1321	 5877.88330187216 
1322	 5874.54740457508 
1323	 5875.94810431785 
1324	 5879.21984871303 
1325	 5883.40027842536 
1326	 5891.14212872694 
1327	 5898.66114345368 
1328	 5906.05099172683 
1329	 5912.25454569512 
1330	 5921.75815091931 
1331	 5932.19130476431 
1332	 5940.46268261699 
1333	 5953.48838513903 
1334	 5965.01891567305 
1335	 5975.01833914063 
1336	 5987.71212026995 
1337	 5998.98175562988 
1338	 6009.41614083086 
1339	 6019.51531186645 
1340	 6028.72497136997 
1341	 6036.23864771421 
1342	 6043.36745786521 
1343	 6052.24898655194 
1344	 6060.9887891625 
1345	 6068.53442414572 
1346	 6079.44439235798 
1347	 6089.26902686916 
1348	 6099.25270982636 
1349	 6105.26889459868 
1350	 6111.71332818303 
1351	 6112.7996673628 
1352	 6110.24528725765 
1353	 6106.73370441476 
1354	 6101.22765641505 
1355	 6090.88779348569 
1356	 6079.14701054709 
1357	 6060.69722254761 
1358	 6037.02827627578 
1359	 6013.57375843221 
1360	 5987.03105390835 
1361	 5959.73081256102 
1362	 5933.07344120356 
1363	 5903.14129105763 
1364	 5872.08026471514 
1365	 5840.86064284846 
1366	 5808.893915183 
1367	 5775.95669704006 
1368	 5743.5764490748 
1369	 5709.07497197674 
1370	 5671.5382053693 
1371	 5632.31475201773 
1372	 5589.02252852632 
1373	 5541.88515009353 
1374	 5490.68633069618 
1375	 5433.71996523753 
1376	 5370.74957648771 
1377	 5303.92398104557 
1378	 5235.11981909975 
1379	 5169.33886959937 
1380	 5104.43348592695 
1381	 5041.76120796061 
1382	 4984.72040258925 
1383	 4930.32510121326 
1384	 4882.91108081088 
1385	 4841.81021912255 
1386	 4806.73061269128 
1387	 4777.40228252014 
1388	 4752.37864039588 
1389	 4732.93810182223 
1390	 4714.55599358741 
1391	 4698.34803501097 
1392	 4683.88410618752 
1393	 4672.14279441298 
1394	 4660.83045149517 
1395	 4651.85892049686 
1396	 4642.39869076145 
1397	 4630.0901781333 
1398	 4615.4010471437 
1399	 4594.22857509883 
1400	 4574.47544526713 
1401	 4555.9538527571 
1402	 4533.8927455157 
1403	 4515.55393293784 
1404	 4494.37366742289 
1405	 4469.50718731352 
1406	 4450.29838442352 
1407	 4429.8234461911 
1408	 4413.70562370299 
1409	 4404.65014901034 
1410	 4397.65451021339 
1411	 4397.05931447601 
1412	 4399.3344520975 
1413	 4405.18977970832 
1414	 4418.20349313224 
1415	 4438.18653841589 
1416	 4461.53235311556 
1417	 4486.56792432162 
1418	 4513.71503822394 
1419	 4542.72579441826 
1420	 4572.38714829601 
1421	 4603.77205226849 
1422	 4635.06884750518 
1423	 4658.29257171433 
1424	 4681.44989108953 
1425	 4707.17033211603 
1426	 4729.51519705827 
1427	 4754.26909383862 
1428	 4777.71623916677 
1429	 4796.69581174697 
1430	 4816.65534691374 
1431	 4834.62725135782 
1432	 4850.90952339263 
1433	 4869.64907164154 
1434	 4888.98072301424 
1435	 4909.18443308802 
1436	 4931.6565643328 
1437	 4954.10963056625 
1438	 4976.75416767937 
1439	 5001.28524869005 
1440	 5026.24243184569 
1441	 5050.5869062027 
1442	 5074.55005436794 
1443	 5097.94595358306 
1444	 5122.96104484079 
1445	 5148.61741195377 
1446	 5175.07911706332 
1447	 5202.44524780426 
1448	 5231.37889855584 
1449	 5258.86787259736 
1450	 5288.42747329132 
1451	 5315.53654412507 
1452	 5340.89465406476 
1453	 5365.47381175494 
1454	 5388.87766241466 
1455	 5410.3208279782 
1456	 5429.9793295175 
1457	 5447.76804629649 
1458	 5464.11587367322 
1459	 5477.35907091067 
1460	 5490.55081541934 
1461	 5500.29665625855 
1462	 5505.88543669453 
1463	 5512.08980269104 
1464	 5516.19708586424 
1465	 5521.60648167414 
1466	 5528.55092650107 
1467	 5533.36723125736 
1468	 5540.14933926491 
1469	 5547.22593496055 
1470	 5553.51251463539 
1471	 5561.62310510247 
1472	 5570.73803638969 
1473	 5578.9979263597 
1474	 5587.02439883194 
1475	 5597.29714208702 
1476	 5607.19913255281 
1477	 5614.5347926412 
1478	 5621.29523727609 
1479	 5628.92077216328 
1480	 5634.56011987717 
1481	 5640.36457788264 
1482	 5648.92306723676 
1483	 5656.82485532304 
1484	 5665.9342316104 
1485	 5675.11859402605 
1486	 5683.16103987978 
1487	 5694.35739194386 
1488	 5704.63307593451 
1489	 5715.41806201305 
1490	 5730.37602314787 
1491	 5742.95505106859 
1492	 5757.26308447768 
1493	 5776.13750560585 
1494	 5795.15539589355 
1495	 5812.3856446195 
1496	 5831.13574683877 
1497	 5849.02893340914 
1498	 5862.45273144471 
1499	 5877.9240641769 
1500	 5888.03547160018 
1501	 5896.59216123391 
1502	 5908.47454620068 
1503	 5916.52382920969 
1504	 5928.66103693606 
1505	 5937.45395123374 
1506	 5942.18014473546 
1507	 5949.03985569868 
1508	 5951.032400963 
1509	 5955.44733711217 
1510	 5959.41241399127 
1511	 5960.66776629269 
1512	 5967.22815476845 
1513	 5971.48362257155 
1514	 5974.99888433888 
1515	 5984.13580172138 
1516	 5991.18997453419 
1517	 5997.06578378277 
1518	 6006.02689987655 
1519	 6014.16009708092 
1520	 6020.89272878889 
1521	 6028.95675838444 
1522	 6033.78413313248 
1523	 6034.35987106153 
1524	 6034.19467033099 
1525	 6031.25415980489 
1526	 6032.54532556873 
1527	 6037.80659922645 
1528	 6041.34140019262 
1529	 6047.5054585474 
1530	 6049.65159370984 
1531	 6047.17444026439 
1532	 6046.08779695699 
1533	 6043.0849761891 
1534	 6042.12540502742 
1535	 6042.4725857453 
1536	 6042.15551950566 
1537	 6042.98332263624 
1538	 6041.86187373237 
1539	 6041.2134192057 
1540	 6042.98166615537 
1541	 6044.85610499249 
1542	 6047.24077295019 
1543	 6050.20059413139 
1544	 6049.08679121682 
1545	 6044.95882981971 
1546	 6041.7366030663 
1547	 6038.02157475911 
1548	 6034.08710349407 
1549	 6030.75110529473 
1550	 6028.10494629247 
1551	 6025.17441811815 
1552	 6021.40169181261 
1553	 6017.45348479215 
1554	 6012.05096679002 
1555	 6004.2737840483 
1556	 5994.40104048586 
1557	 5983.1047706804 
1558	 5970.7443796347 
1559	 5957.27512295438 
1560	 5943.49453485143 
1561	 5927.59018792403 
1562	 5907.97414752889 
1563	 5886.4903054263 
1564	 5864.83874484185 
1565	 5843.21732347041 
1566	 5820.77352386375 
1567	 5797.6147768726 
1568	 5771.67482637656 
1569	 5744.36792528317 
1570	 5718.60740831533 
1571	 5694.65849801079 
1572	 5670.57669876965 
1573	 5646.67780618845 
1574	 5625.04111055287 
1575	 5601.70690712934 
1576	 5582.31040408048 
1577	 5567.60486306175 
1578	 5549.95406206621 
1579	 5533.33784660888 
1580	 5517.43743875168 
1581	 5497.40052099616 
1582	 5475.53543277826 
1583	 5455.54058247051 
1584	 5435.03296633645 
1585	 5413.52493000797 
1586	 5392.99942447155 
1587	 5370.67983215225 
1588	 5348.37489370008 
1589	 5323.47584382499 
1590	 5298.8740654662 
1591	 5274.65851828731 
1592	 5242.96291977958 
1593	 5211.29649775428 
1594	 5179.03534768194 
1595	 5143.19055152919 
1596	 5106.84007671315 
1597	 5069.85975264292 
1598	 5031.89326770885 
1599	 4994.08872019331 
1600	 4957.06261556466 
1601	 4918.53624986474 
1602	 4874.68361108983 
1603	 4827.85911604573 
1604	 4781.57995370147 
1605	 4731.04765243578 
1606	 4681.72622534287 
1607	 4631.56009711704 
1608	 4575.63134311233 
1609	 4518.57454254729 
1610	 4453.81852882434 
1611	 4380.35026377206 
1612	 4304.02795499579 
1613	 4220.36322661258 
1614	 4132.99169783098 
1615	 4046.06553333828 
1616	 3948.13158063825 
1617	 3840.73902374639 
1618	 3728.82963005338 
1619	 3606.41179146876 
1620	 3475.88917282746 
1621	 3344.90470773741 
1622	 3208.06102272135 
1623	 3069.51242812103 
1624	 2934.00227295574 
1625	 2797.93948477656 
1626	 2663.32124625643 
1627	 2531.39528424724 
1628	 2402.12783035533 
1629	 2281.41841157197 
1630	 2172.20948548231 
1631	 2071.54078377669 
1632	 1982.37300862659 
1633	 1902.87608876925 
1634	 1830.41517288977 
1635	 1769.94763584479 
1636	 1721.85484812462 
1637	 1681.97049372723 
1638	 1653.80442332191 
1639	 1631.73212538002 
1640	 1620.30022931332 
1641	 1610.94475947736 
1642	 1610.46682284019 
1643	 1607.75728220853 
1644	 1608.26393895973 
1645	 1606.85835361542 
1646	 1608.51860946733 
1647	 1603.01966205767 
1648	 1598.98935624046 
1649	 1581.19677534802 
1650	 1556.08561601998 
1651	 1519.35843844908 
1652	 1468.83450342612 
1653	 1414.79539611637 
1654	 1356.28030273423 
1655	 1283.69636617461 
1656	 1199.46886772851 
1657	 1112.25105514282 
1658	 1006.9090157332 
1659	 913.251970280227 
1660	 818.921347207727 
1661	 733.281681890197 
1662	 652.028355538976 
1663	 577.4602934648 
1664	 509.212910387345 
1665	 447.503462107575 
1666	 391.436441626203 
1667	 342.632419651652 
1668	 301.228739058068 
1669	 265.340144599267 
1670	 236.820442558716 
1671	 210.790385824129 
1672	 189.788608237681 
1673	 173.495867887679 
1674	 162.602499429271 
1675	 151.910163948997 
1676	 145.054811298602 
1677	 140.643986431636 
1678	 137.850570639636 
1679	 135.622902974825 
1680	 137.784254667921 
1681	 137.319269899861 
1682	 134.138951168869 
1683	 137.254577212908 
1684	 142.244695453463 
1685	 149.529784176181 
1686	 156.930535594452 
1687	 159.754011665418 
1688	 164.234728955294 
1689	 168.124391583215 
1690	 172.209277787222 
1691	 177.894438508906 
1692	 183.351329782057 
1693	 187.150308878869 
1694	 192.880637334968 
1695	 201.054194491319 
1696	 207.731541131842 
1697	 214.791909585087 
1698	 221.308573079016 
1699	 225.975646102815 
1700	 231.969805874854 
1701	 238.625852068976 
1702	 245.438297885593 
1703	 251.887081492816 
1704	 260.270072140429 
1705	 271.710056624622 
1706	 279.36899215913 
1707	 286.008364370686 
1708	 293.260262441224 
1709	 297.591478888569 
1710	 304.283479331864 
1711	 315.050948713348 
1712	 320.907751239068 
1713	 323.980802693763 
1714	 328.451792387003 
1715	 331.31594686785 
1716	 335.078922049646 
1717	 340.453259794702 
1718	 343.74009339389 
1719	 345.033683018291 
1720	 348.71299451578 
1721	 352.496118962022 
1722	 357.777206697934 
1723	 364.438064718946 
1724	 371.814260526736 
1725	 378.735531389996 
1726	 392.728954871954 
1727	 407.416279099678 
1728	 417.320133013311 
1729	 430.692319162156 
1730	 442.721133493041 
1731	 449.61285440202 
1732	 465.025058137319 
1733	 477.275575172093 
1734	 487.803547672605 
1735	 497.630043960394 
1736	 508.585615153232 
1737	 514.000014597787 
1738	 517.008470750459 
1739	 516.154508551145 
1740	 509.742192032476 
1741	 502.159748214571 
1742	 491.483531051975 
1743	 479.822506471593 
1744	 466.375675161063 
1745	 451.216231697307 
1746	 433.512297184259 
1747	 417.011101483689 
1748	 397.639481521784 
1749	 382.571764714849 
1750	 368.579937417748 
1751	 358.86467089082 
1752	 353.086968365363 
1753	 346.799424371436 
1754	 341.794017453562 
1755	 337.933169424127 
1756	 222.764326692042 
1757	 231.967356503805 
1758	 243.308852517413 
1759	 258.721908211131 
1760	 265.66093324668 
1761	 274.26817632424 
1762	 306.125792469519 
1763	 340.901700185762 
1764	 357.836915087807 
1765	 363.38019259106 
1766	 373.843267189962 
1767	 373.120428698527 
1768	 382.976696772448 
1769	 396.786401916219 
1770	 419.479018016857 
1771	 440.428804771796 
1772	 449.477996169242 
1773	 463.660717690797 
1774	 481.65296617046 
1775	 488.823943784795 
1776	 489.177733672511 
1777	 495.484151988613 
1778	 501.665284698914 
1779	 497.212432322295 
1780	 498.24840295824 
1781	 507.227107690445 
1782	 510.381427567396 
1783	 520.288238917084 
1784	 529.048921432798 
1785	 542.145381050743 
1786	 553.141772960651 
1787	 573.152722821358 
1788	 587.327077500247 
1789	 600.761061732936 
1790	 614.563911448667 
1791	 606.466608316972 
1792	 602.33955770505 
1793	 620.240332392149 
1794	 631.87460822512 
1795	 644.819713862321 
1796	 656.083996062576 
1797	 672.253592045325 
1798	 687.67075958651 
1799	 706.619463988018 
1800	 734.320921092896 
1801	 751.115347025424 
1802	 741.86644104249 
1803	 746.00044803989 
1804	 745.118360233401 
1805	 746.956206903008 
1806	 745.787342177988 
1807	 767.032739292594 
1808	 781.452394131888 
1809	 780.791349464324 
1810	 794.382876223885 
1811	 805.999376562029 
1812	 815.146026949948 
1813	 819.69320730978 
1814	 827.653081124216 
1815	 838.557200761408 
1816	 845.448690740857 
1817	 850.673231087254 
1818	 855.294095676604 
1819	 862.655962354624 
1820	 866.187152862277 
1821	 869.409480472139 
1822	 869.362791049453 
1823	 878.498649970514 
1824	 896.450076095776 
1825	 901.506998185343 
1826	 913.303232644504 
1827	 913.500632662535 
1828	 895.932904346002 
1829	 874.176481781373 
1830	 868.847719602556 
1831	 867.753570797116 
1832	 868.619101786611 
1833	 879.561331245274 
1834	 887.173019550055 
1835	 888.362997798454 
1836	 901.087901661281 
1837	 932.488839064002 
1838	 948.513943687025 
1839	 971.72737120327 
1840	 977.332161486167 
1841	 978.536456281943 
1842	 955.997797487444 
1843	 955.442618804441 
1844	 963.394650341224 
1845	 963.982277661609 
1846	 969.550104833301 
1847	 972.913863203632 
1848	 970.733727596923 
1849	 962.30526160777 
1850	 974.26395489679 
1851	 978.465841567996 
1852	 980.003799467941 
1853	 979.684665488978 
1854	 982.041974039514 
1855	 977.101818909493 
1856	 982.651990797559 
1857	 993.590369313949 
1858	 1010.71283819672 
1859	 1027.25001920619 
1860	 1043.65671700835 
1861	 1058.04886573789 
1862	 1057.84583809966 
1863	 1064.19216498553 
1864	 1064.18802977494 
1865	 1071.93180167284 
1866	 1091.03315374187 
1867	 1102.68311093562 
1868	 1110.83758484653 
1869	 1123.72016984391 
1870	 1133.3987701623 
1871	 1141.11612688566 
1872	 1156.44603465485 
1873	 1174.65575211186 
1874	 1194.72838770369 
1875	 1204.57917575645 
1876	 1214.76955947707 
1877	 1223.40852564176 
1878	 1232.32576296617 
1879	 1235.4360232474 
1880	 1240.68037109067 
1881	 1237.13252081361 
1882	 1227.58228857224 
1883	 1228.33621694893 
1884	 1217.89562662563 
1885	 1210.53904415353 
1886	 1201.88969731594 
1887	 1183.66062247834 
1888	 1148.75724007924 
1889	 1130.80938341626 
1890	 1107.21277516606 
1891	 1080.91924864456 
1892	 1067.63424910766 
1893	 1045.3624532765 
1894	 1027.81560093717 
1895	 1013.53132645157 
1896	 1001.55518909516 
1897	 988.996867679498 
1898	 977.396267342823 
1899	 964.897812911043 
1900	 954.572478320973 
1901	 935.840392791161 
1902	 923.42612373884 
1903	 916.464987611081 
1904	 918.011308286854 
1905	 935.335182596379 
1906	 949.982843673962 
1907	 969.76496167829 
1908	 988.086609335092 
1909	 1005.18699540621 
1910	 1020.66590550494 
1911	 1040.91536945737 
1912	 1053.25451006353 
1913	 1057.76040169593 
1914	 1067.97872351017 
1915	 1076.59478607739 
1916	 1093.1209575734 
1917	 1114.60316311582 
1918	 1141.71997613131 
1919	 1156.58815850921 
1920	 1166.64005668012 
1921	 1171.92764146587 
1922	 1167.75255362276 
1923	 1165.22309008716 
1924	 1162.30103084793 
1925	 1158.35918728089 
1926	 1154.52071391033 
1927	 1143.26536782124 
1928	 1136.40517928068 
1929	 1123.11011325808 
1930	 1105.75155518138 
1931	 1081.30358049667 
1932	 1064.77397042866 
1933	 1042.0635180287 
1934	 1031.93527061919 
1935	 1030.61925386655 
1936	 1028.55296338976 
1937	 1031.82028115417 
1938	 1034.8091688618 
1939	 1035.91539028126 
1940	 1045.32103013346 
1941	 1058.39523834672 
1942	 1076.5314235043 
1943	 1095.01156140252 
1944	 1122.97133365835 
1945	 1141.58006950513 
1946	 1151.86048111428 
1947	 1172.00999910914 
1948	 1194.46962305658 
1949	 1215.66313348207 
1950	 1247.45447103612 
1951	 1270.11473540738 
1952	 1285.39996569448 
1953	 1300.96473376353 
1954	 1313.88939127067 
1955	 1323.18179141443 
1956	 1333.89271207892 
1957	 1339.69375586117 
1958	 1353.26651108267 
1959	 1378.44870888759 
1960	 1387.22710140356 
1961	 1395.79019543072 
1962	 1396.48331558122 
1963	 1372.0769402505 
1964	 1365.0142449339 
1965	 1362.76795838495 
1966	 1363.47840223808 
1967	 1369.79262098033 
1968	 1389.84761115277 
1969	 1396.31230374115 
1970	 1401.52418474385 
1971	 1403.68688790405 
1972	 1401.14412934874 
1973	 1397.36438490535 
1974	 1388.85410291951 
1975	 1384.08552301169 
1976	 1377.08902232571 
1977	 1372.15701928361 
1978	 1366.48183162916 
1979	 1370.16709510196 
1980	 1370.52411161826 
1981	 1373.93460559777 
1982	 1370.70616495588 
1983	 1370.34151234321 
1984	 1357.26065769332 
1985	 1324.84563399896 
1986	 1310.71045887857 
1987	 1297.11282023003 
1988	 1289.61936314655 
1989	 1300.95861579296 
1990	 1301.34538103061 
1991	 1301.27192894514 
1992	 1288.6100228743 
1993	 1283.05673743536 
1994	 1277.07364404819 
1995	 1274.29363969794 
1996	 1276.00507437598 
1997	 1276.77568707242 
1998	 1280.00937807269 
1999	 1278.24503615168 
2000	 1275.67085094083 
2001	 1271.13705590614 
2002	 1266.76874935235 
2003	 1255.37143961947 
2004	 1238.4997858649 
2005	 1220.89134012127 
2006	 1204.88489631677 
2007	 1187.28294712738 
2008	 1171.01686307255 
2009	 1163.57320255763 
2010	 1156.78965891327 
2011	 1147.44528956987 
2012	 1146.35056504382 
2013	 1163.50971488313 
2014	 1156.57297533824 
2015	 1142.99209324067 
2016	 1127.03296192633 
2017	 1084.55568881134 
2018	 1067.72337625644 
2019	 1061.8987678701 
2020	 1058.96005654494 
2021	 1071.12387251108 
2022	 1083.24105998141 
2023	 1092.1001630297 
2024	 1090.41675605414 
2025	 1083.06021318147 
2026	 1066.21449389058 
2027	 1054.48636053797 
2028	 1036.56396712493 
2029	 1026.70129239179 
2030	 1017.47991468151 
2031	 1012.26979356923 
2032	 1015.32621424801 
2033	 1010.40064026156 
2034	 1004.03401830591 
2035	 1005.53938510676 
2036	 999.971370702241 
2037	 991.326782070191 
2038	 987.599961974053 
2039	 986.278481903407 
2040	 977.093968564397 
2041	 972.236773897853 
2042	 959.692399925267 
2043	 932.4163294444 
2044	 920.695263945381 
2045	 910.127703385365 
2046	 901.626484501352 
2047	 912.982292703854 
2048	 910.104662216865 
2049	 893.603323196925 
2050	 892.921458270391 
2051	 883.411003421584 
2052	 866.063051059561 
2053	 873.042143951403 
2054	 865.760866841894 
2055	 860.948666933024 
2056	 868.737760154215 
2057	 859.483844602941 
2058	 858.195877966984 
2059	 855.861715268975 
2060	 853.675770280279 
2061	 848.591626398886 
2062	 841.313859781387 
2063	 835.502747479516 
2064	 825.937095457539 
2065	 827.275972240804 
2066	 831.205465189823 
2067	 832.424270352323 
2068	 837.396883018058 
2069	 834.48477431892 
2070	 831.197578202713 
2071	 836.232906416105 
2072	 844.387270949773 
2073	 850.864139674422 
2074	 847.562966567777 
2075	 844.565600020752 
2076	 835.711133205074 
2077	 815.151291957331 
2078	 800.668213441671 
2079	 786.159628204476 
2080	 771.159052349607 
2081	 754.349370791945 
2082	 741.005775844848 
2083	 734.901241050152 
2084	 733.044134352594 
2085	 730.524889942988 
2086	 730.097679383228 
2087	 723.351403732637 
2088	 701.469109087884 
2089	 685.842823570292 
2090	 669.521284959047 
2091	 652.456664681912 
2092	 649.486237725697 
2093	 633.97572410947 
2094	 616.891607461039 
2095	 607.682159742812 
2096	 598.360539441949 
2097	 590.271767001915 
2098	 588.732605806595 
2099	 592.268204444501 
2100	 578.14929024487 
2101	 563.515205973533 
2102	 552.699341412109 
2103	 530.839831231676 
2104	 512.925180819827 
2105	 497.790496077672 
2106	 475.170128839342 
2107	 451.712845123219 
2108	 432.524185635984 
2109	 412.906478597742 
2110	 397.074985583452 
2111	 387.222056390756 
2112	 370.338057088557 
2113	 365.311979720242 
2114	 360.468168209556 
2115	 357.808730256755 
2116	 346.605886716293 
2117	 340.49395184364 
2118	 321.701125458055 
2119	 286.141403069592 
2120	 262.654432401552 
2121	 249.378388839796 
2122	 241.139957578172 
2123	 238.270121233319 
2124	 239.277640928567 
2125	 230.759067085269 
2126	 213.819691724075 
2127	 195.718711795251 
2128	 173.196726294788 
2129	 155.647448643862 
2130	 139.932720416956 
2131	 119.147097246542 
2132	 100.563805397938 
2133	 78.7874032473481 
2134	 51.9626831212342 
2135	 39.0272414148207 
2136	 41.690509721091 
2137	 37.6440766381758 
2138	 34.3431969072124 
2139	 38.7715526271834 
2140	 49.0035175921084 
2141	 46.4115021346837 
2142	 51.8375568455869 
2143	 57.425070973193 
2144	 48.1357045476433 
2145	 39.3652872325449 
2146	 36.8667867985739 
2147	 34.3815892435839 
2148	 34.2928539028197 
2149	 48.4582516634737 
2150	 55.6466153945096 
2151	 62.3163273226911 
2152	 68.827995103864 
2153	 56.2247087698674 
2154	 53.3860375785481 
2155	 55.6175376256006 
2156	 43.7920089632556 
2157	 31.5113485028206 
2158	 25.1853419625564 
2159	 11.9578221154619 
2160	 9.48303589272049 
2161	 25.9607105168085 
2162	 30.9023759944621 
2163	 35.4647508298472 
2164	 27.7869368899274 
2165	 26.2680710590472 
2166	 19.3641245088591 
2167	 18.1468263842457 
2168	 24.9760650290175 
2169	 20.70201940296 
2170	 27.7922797796471 
2171	 37.436299080442 
2172	 37.3735008749374 
2173	 49.7667147586168 
2174	 55.9170740986124 
2175	 51.1645418275522 
2176	 60.8136826634759 
2177	 60.8427235103165 
2178	 48.6264840197756 
2179	 43.0159274412699 
2180	 34.6402835411139 
2181	 32.8647688317557 
2182	 41.0201828936067 
2183	 53.3676897455205 
2184	 83.0369939941983 
2185	 94.8525960478978 
2186	 103.477406193208 
2187	 107.008790316483 
2188	 100.839227326062 
2189	 88.9300301754798 
2190	 91.5946919176133 
2191	 102.016776942069 
2192	 118.735480067913 
2193	 142.422184558787 
2194	 155.041319214122 
2195	 163.720256284952 
2196	 171.033144350147 
2197	 177.243129775539 
2198	 189.54561311287 
2199	 200.50528230432 
2200	 209.682248160132 
2201	 210.22079580792 
2202	 210.965067633861 
2203	 211.423526472558 
2204	 206.758809449001 
2205	 208.356940325373 
2206	 198.055317470317 
2207	 184.376125381752 
2208	 176.694763895533 
2209	 160.988255994606 
2210	 154.090681344026 
2211	 155.40175759279 
2212	 154.984296338403 
2213	 157.966753176552 
2214	 160.73976264946 
2215	 162.480274190573 
2216	 164.337582375595 
2217	 168.604687752027 
2218	 169.824256385396 
2219	 167.449958755612 
2220	 170.207840841008 
2221	 179.333369827429 
2222	 190.484728727886 
2223	 200.032820014553 
2224	 207.047385360404 
2225	 201.026539944633 
2226	 188.538454173529 
2227	 173.789239119312 
2228	 153.25047921598 
2229	 138.368691583702 
2230	 127.733538382613 
2231	 120.452626642806 
2232	 125.731276561694 
2233	 126.181774447321 
2234	 121.025343867107 
2235	 121.742261607507 
2236	 113.377705587836 
2237	 112.922846200678 
2238	 113.732076904972 
2239	 112.646391636924 
2240	 129.70879208502 
2241	 141.28012969122 
2242	 152.562868432221 
2243	 159.471480570368 
2244	 159.641096424916 
2245	 159.332220977868 
2246	 159.012487771244 
2247	 157.923887776622 
2248	 159.31089927015 
2249	 156.216184241934 
2250	 142.145156563724 
2251	 134.130398934979 
2252	 128.23665096384 
2253	 122.032574129786 
2254	 128.625593701678 
2255	 122.034639871687 
2256	 107.083850251076 
2257	 84.6739498797391 
2258	 73.088097784728 
2259	 55.015401979122 
2260	 55.8169831866406 
2261	 67.1008542334863 
2262	 65.5150638788364 
2263	 68.0568828068842 
2264	 68.7035955876646 
2265	 62.5118462642524 
2266	 53.2344786573182 
2267	 46.9247640874507 
2268	 30.8756236434885 
2269	 18.3400275190609 
2270	 20.7700548411935 
2271	 17.3087657284993 
2272	 27.4848062157841 
2273	 42.4399551575551 
2274	 46.9893593609023 
2275	 48.7251153478974 
2276	 34.087958656394 
2277	 15.0047228826304 
2278	 7.30989010559438 
2279	 3.51415111300671 
2280	 14.9168402456923 
2281	 18.5287897039205 
2282	 7.82913254356818 
2283	 2.4930523735417 
2284	-15.468958787639 
2285	-25.8562921826786 
2286	-25.6259627804878 
2287	-12.92939349256 
2288	-9.87184784471532 
2289	-1.15763170305234 
2290	 3.37969602204503 
2291	-0.353561335433795 
2292	 2.62226532831626 
2293	 13.4042152860331 
2294	 13.9588952652356 
2295	 11.8130068548489 
2296	 8.0056718294153 
2297	-6.39783008816256 
2298	-10.1729069231716 
2299	-8.88674609032931 
2300	-9.53712130195958 
2301	-6.57770813069909 
2302	-3.95647943640794 
2303	-1.62811518905149 
2304	 1.33855922200328 
2305	 4.52603513392975 
2306	 10.0601619344424 
2307	 14.4911043129683 
2308	 18.2670372512869 
2309	 23.3459912997785 
2310	 34.456764008315 
2311	 33.3862441198953 
2312	 39.7584530136146 
2313	 39.4985616039982 
2314	 31.2711550786788 
2315	 31.1558509347092 
2316	 29.1995219329103 
2317	 34.5828839965427 
2318	 39.8819299787186 
2319	 34.7100456864683 
2320	 30.950035315383 
2321	 28.9369321849678 
2322	 26.5909557633177 
2323	 28.386898413829 
2324	 34.7798710952924 
2325	 29.5671001611056 
2326	 15.5337827840163 
2327	 3.92832885352504 
2328	 3.03204264945327 
2329	 4.1811294100515 
2330	 13.7123611265902 
2331	 25.2931606219677 
2332	 14.0305399611585 
2333	 7.18271069667098 
2334	-3.87961163126471 
2335	-11.8360871897368 
2336	-7.91851801899937 
2337	-7.39787007862105 
2338	 5.68488576672663 
2339	 15.3565520571506 
2340	 19.156694693849 
2341	 28.407754014617 
2342	 28.3078284743922 
2343	 25.6675612723509 
2344	 25.6762458848582 
2345	 19.5695001326951 
2346	 13.9133262191107 
2347	 5.12808182926649 
2348	-2.76586350905757 
2349	-6.66268715728253 
2350	-14.6576397096005 
2351	-18.524391037808 
2352	-13.6967932878752 
2353	-10.1625955422552 
2354	 1.94276591394363 
2355	 16.9997194326785 
2356	 23.164694148534 
2357	 34.3386186032181 
2358	 31.8036008038586 
2359	 26.2275252485386 
2360	 21.3648831208781 
2361	 10.5232939572639 
2362	 17.8331883583266 
2363	 23.7270811125245 
2364	 30.8442327285394 
2365	 38.3232791531956 
2366	 23.4049820657137 
2367	 14.0141360900429 
2368	 6.08571452196322 
2369	-6.15391456132457 
2370	 1.63123351585012 
2371	 2.89059210752108 
2372	-0.513480079455615 
2373	-3.35222637926547 
2374	-20.0607353206376 
2375	-22.4929990277474 
2376	-18.3831354863702 
2377	-8.97073354380288 
2378	 8.48229638322984 
2379	 7.84191134799628 
2380	 8.79329917047416 
2381	 7.93961344964823 
2382	 0.918925137830469 
2383	 4.47404628979176 
2384	 4.28448506353066 
2385	 2.9684501358003 
2386	 2.07172224754085 
2387	 5.98673489644285 
2388	 6.66252233847398 
2389	-4.05396305226194 
2390	-0.22458872870478 
2391	-7.48975576002853 
2392	-23.2099626578585 
2393	-22.5214427735126 
2394	-27.4537072574366 
2395	-28.4880794469168 
2396	-25.8226298492995 
2397	-26.769943998989 
2398	-29.010803782211 
2399	-32.2465214376389 
2400	-24.8956578589805 
2401	-14.545926930233 
2402	-11.3374866825953 
2403	-1.05551207863077 
2404	 4.72109456924989 
2405	 2.36704721763514 
2406	 2.10857955784163 
2407	-5.21213379325299 
2408	-5.36065444602964 
2409	-8.24397146641445 
2410	-5.15994926298265 
2411	 2.12804325124588 
2412	-5.68870956398164 
2413	-1.52428431745816 
2414	 2.30819395800383 
2415	 7.71701358810669 
2416	 16.7881956453641 
2417	 20.3235190947542 
2418	 21.1391773954779 
2419	 8.83681731314787 
2420	 1.0056787906358 
2421	-6.49088531727028 
2422	-12.3484289810741 
2423	 1.98842651558449 
2424	 17.1196601859013 
2425	 23.4448714237817 
2426	 25.9098513903992 
2427	 10.7695126129876 
2428	-2.30452519455105 
2429	-2.87717440195647 
2430	-9.48824374178666 
2431	-6.90210072478136 
2432	-10.7268703147607 
2433	-18.1789727804801 
2434	-8.79000637090252 
2435	-1.18481186621424 
2436	 16.7068986710746 
2437	 34.7735585413793 
2438	 37.0965272846711 
2439	 45.9108104477407 
2440	 45.5953545202119 
2441	 37.517102581512 
2442	 37.9868983586194 
2443	 27.9771789818277 
2444	 11.1037422559803 
2445	-2.25057373283038 
2446	-14.5219273747713 
2447	-17.3620976769215 
2448	-11.1316413887158 
2449	-6.51203037898816 
2450	-4.00935178752963 
2451	-6.46710453095251 
2452	-13.53518400523 
2453	-22.5705711802283 
2454	-31.9223488724878 
2455	-36.8432525477763 
2456	-32.1039920846321 
2457	-12.3989337933796 
2458	 10.1864838769608 
2459	 28.8389225033994 
2460	 40.5038359232776 
2461	 31.0094398271555 
2462	 18.8991042298227 
2463	 8.97425490121439 
2464	-6.22286120167918 
2465	-8.52703381133611 
2466	-6.62496356473269 
2467	-0.981527308920586 
2468	 6.4572457757241 
2469	 14.3050160984341 
2470	-6.75839827946743 
2471	-3.14736888902585 
2472	-2.52635116624162 
2473	-8.80862686553219 
2474	 6.82689004646437 
2475	-0.920123391286431 
2476	-9.02750575336525 
2477	-8.82159692845194 
2478	-10.0684351603028 
2479	-4.14749651238814 
2480	 7.00096952225213 
2481	 19.968675123887 
2482	 24.788398763725 
2483	 32.2294895612062 
2484	 23.1714665749912 
2485	 0.46815717027785 
2486	-12.9281028434624 
2487	-31.63815195318 
2488	-26.4073010504235 
2489	-12.1672275247944 
2490	-15.3592678644745 
2491	-2.64715478729918 
2492	-3.87995186323986 
2493	-20.1527714234668 
2494	-15.5016838405788 
2495	-12.2327851834957 
2496	-9.74956458703486 
2497	 13.5352082820979 
2498	 34.5618986852754 
2499	 40.6880097770365 
2500	 48.9159289083281 
