Wavelength	4mm_whiteABS00000.asd
350	-1.94541299064317 
351	-0.789270817083704 
352	-0.267576344200312 
353	-0.484729397476132 
354	-0.538160098508744 
355	-0.677767103078094 
356	-0.977049502631215 
357	-0.279037613254751 
358	 0.313068336306025 
359	 0.190670253673272 
360	-0.82867094491429 
361	-2.19174403407376 
362	-2.3721087546264 
363	-0.613474789740749 
364	 4.30722889303131E-02 
365	-0.304755385470004 
366	-0.873687094162284 
367	-7.37224699624638E-02 
368	-0.427485254819511 
369	-1.10644406942848 
370	-0.453744492245131 
371	 0.778916956487657 
372	 1.4444912606706 
373	 0.918270400515278 
374	-0.652143815547952 
375	-1.58261401621751 
376	-1.61840302507211 
377	-1.35476419366244 
378	-1.80625321809444 
379	-2.03497764094939 
380	-1.44892564733139 
381	-1.36819457826988 
382	-1.39005628970936 
383	-1.49565770144237 
384	-1.96645607500092 
385	-2.30055154571741 
386	-2.09050267553976 
387	-1.23151766743584 
388	-0.769709963803323 
389	-0.535408162296793 
390	-0.373228260355184 
391	-0.22600588717319 
392	-0.402550212469806 
393	-0.373189839638117 
394	 0.418324108211709 
395	-0.885073875222421 
396	-1.82478607006747 
397	-0.720803175487741 
398	 0.697685050407398 
399	 1.03551925903509 
400	 0.650778596594811 
401	 1.31345824197688 
402	 2.18200344651319 
403	 2.46882458573477 
404	 1.73026551674253 
405	 0.74174880173084 
406	 2.01274113100138 
407	 4.90179244397881 
408	 3.67803606094507 
409	 3.54164367327153 
410	 4.77531491148189 
411	 5.70121742313364 
412	 5.75479259242878 
413	 6.47786915893538 
414	 8.51804195258425 
415	 9.2162267142196 
416	 9.8718435278004 
417	 10.8664705959725 
418	 11.8385299509786 
419	 13.3774524292083 
420	 15.047581249398 
421	 16.2682656339386 
422	 17.4401694246868 
423	 18.1114997527036 
424	 18.5931290479882 
425	 21.0424149981267 
426	 22.0667411225415 
427	 22.4410231641965 
428	 24.9536731604143 
429	 26.1467658144323 
430	 27.3180045107822 
431	 29.6979923858557 
432	 31.0064549084202 
433	 31.6499304969701 
434	 32.3901962958128 
435	 34.5028783308454 
436	 36.2179816209795 
437	 37.5493436065385 
438	 39.1367578036145 
439	 40.7016542473521 
440	 42.6151047726061 
441	 44.8930449017536 
442	 46.5045391823288 
443	 47.2229186386829 
444	 47.5928330019627 
445	 48.9190126726414 
446	 50.1750216027587 
447	 51.7936741289791 
448	 54.2728826030279 
449	 56.0532343790892 
450	 57.1053648527284 
451	 57.7777501190136 
452	 58.770538703659 
453	 61.1067784040421 
454	 63.8253137837889 
455	 64.582817005131 
456	 65.6247145977834 
457	 66.9537341721946 
458	 68.2714371146161 
459	 70.4912352770963 
460	 72.5004551765177 
461	 74.1382913816444 
462	 77.2520193534165 
463	 79.9307977641255 
464	 82.044569280758 
465	 84.3236566018467 
466	 86.1174496766812 
467	 87.9127492646069 
468	 90.2541268580934 
469	 93.128020559707 
470	 95.4937556276626 
471	 97.4496771495342 
472	 101.072052817266 
473	 103.139480727747 
474	 104.911262121997 
475	 109.493853435574 
476	 114.139261168796 
477	 117.683411299596 
478	 119.890372102678 
479	 122.575606823356 
480	 126.034027801 
481	 130.039230062321 
482	 133.642496689501 
483	 137.885234097687 
484	 142.138752010298 
485	 145.247221836699 
486	 148.848652562643 
487	 153.168821471521 
488	 158.101949752954 
489	 163.331195460457 
490	 168.77250320454 
491	 174.316838809891 
492	 179.814146072721 
493	 185.251700298735 
494	 190.399379555577 
495	 195.210074177646 
496	 202.82240424897 
497	 209.596664216158 
498	 213.190960544316 
499	 218.876085865747 
500	 225.667078406604 
501	 232.84644309083 
502	 240.070121002182 
503	 246.890691695249 
504	 253.976861715642 
505	 262.254090247366 
506	 269.323756201542 
507	 275.132136709345 
508	 280.542090523033 
509	 287.989263444407 
510	 296.459196127083 
511	 305.374465983644 
512	 314.843956407035 
513	 323.203410065292 
514	 331.161701680443 
515	 340.377449244046 
516	 349.410434324712 
517	 358.154815898952 
518	 366.767653200958 
519	 375.400166429761 
520	 384.914894169588 
521	 395.136552456049 
522	 404.307798885699 
523	 413.871576177873 
524	 424.068780525535 
525	 434.576206340394 
526	 444.388554220005 
527	 454.588466973436 
528	 465.713113813604 
529	 474.191399742064 
530	 484.37340774868 
531	 497.033190275632 
532	 506.887669307272 
533	 516.753582446531 
534	 526.957213867694 
535	 536.840723264096 
536	 547.462550055631 
537	 557.984622605862 
538	 567.747575545108 
539	 578.766321283619 
540	 589.980969241365 
541	 600.437888347923 
542	 609.313806388058 
543	 618.46881204127 
544	 628.378642834239 
545	 638.690505789641 
546	 648.659910504311 
547	 658.71313700036 
548	 669.350032304209 
549	 679.8913469397 
550	 689.600294442332 
551	 698.390176656812 
552	 707.477410415112 
553	 716.38667660295 
554	 725.136246875677 
555	 734.05992997307 
556	 743.589666982537 
557	 752.940275973693 
558	 761.133411371664 
559	 768.409024357289 
560	 776.268543196418 
561	 785.041231424759 
562	 792.065721911404 
563	 797.678874386366 
564	 802.417754053267 
565	 807.167018293986 
566	 811.233905174703 
567	 814.518024139453 
568	 817.134536094034 
569	 819.611658007194 
570	 820.442786131279 
571	 819.505930355359 
572	 821.831355101082 
573	 822.487142584652 
574	 820.598408543559 
575	 820.080873287481 
576	 818.870472614905 
577	 816.552388169052 
578	 813.313608069229 
579	 809.869783514495 
580	 805.303013001278 
581	 799.666667021776 
582	 797.621049014554 
583	 796.340486061583 
584	 794.130459270925 
585	 791.126153148 
586	 786.497305201825 
587	 781.741243307089 
588	 779.509433032945 
589	 776.617309821677 
590	 773.829599346997 
591	 772.633588931898 
592	 774.063640053293 
593	 775.585611144992 
594	 775.818334052804 
595	 775.451357388946 
596	 776.279486233292 
597	 779.740155584309 
598	 786.964662510189 
599	 792.738183809249 
600	 797.530871228402 
601	 803.302860595249 
602	 810.574521676655 
603	 817.018237807613 
604	 821.934377726331 
605	 829.171339309253 
606	 835.770148175595 
607	 842.295078245841 
608	 852.495551812852 
609	 864.325270721655 
610	 876.883922414277 
611	 889.559022331782 
612	 902.28042827845 
613	 914.376339809972 
614	 925.793624627156 
615	 938.594644138247 
616	 950.802195994957 
617	 961.553642277436 
618	 971.056843866876 
619	 982.383645672379 
620	 994.739995894432 
621	 1005.72379502402 
622	 1017.11063000773 
623	 1028.44775228431 
624	 1039.51506030552 
625	 1052.66449089836 
626	 1064.71079338232 
627	 1074.92715281426 
628	 1086.77661523168 
629	 1098.42872429949 
630	 1109.30437319589 
631	 1119.36785033152 
632	 1130.11928437452 
633	 1140.1321093732 
634	 1148.01754543032 
635	 1155.96610139496 
636	 1164.2450329693 
637	 1172.64232021132 
638	 1180.10635918318 
639	 1188.1473761971 
640	 1196.65786224434 
641	 1204.37494024838 
642	 1212.96832161556 
643	 1222.03546332557 
644	 1230.83459511135 
645	 1240.71220914951 
646	 1250.22183402463 
647	 1258.79504856799 
648	 1268.84528418913 
649	 1278.14185646148 
650	 1286.60439221792 
651	 1296.17783285733 
652	 1307.05808218085 
653	 1318.45665064783 
654	 1329.2210080818 
655	 1339.52318427755 
656	 1350.54707330045 
657	 1362.91248059008 
658	 1375.11434639801 
659	 1387.55083026422 
660	 1400.12969820987 
661	 1412.05222485834 
662	 1424.36950316623 
663	 1437.20871159853 
664	 1450.25503222507 
665	 1462.86228591174 
666	 1475.39733089212 
667	 1488.4786719197 
668	 1503.13330716166 
669	 1516.97540795758 
670	 1529.56457858075 
671	 1543.78064946865 
672	 1557.71077399181 
673	 1571.94873276898 
674	 1588.29005836054 
675	 1605.70888511285 
676	 1622.53472785377 
677	 1637.96117718569 
678	 1656.22015688805 
679	 1674.02372686023 
680	 1690.09282605951 
681	 1707.83737739243 
682	 1725.07025568823 
683	 1742.13709086579 
684	 1760.95595234106 
685	 1779.52249030606 
686	 1797.98925035193 
687	 1817.02301000188 
688	 1837.00881367018 
689	 1856.25046351426 
690	 1874.26601917946 
691	 1893.81814624275 
692	 1912.39129641576 
693	 1930.1116046363 
694	 1949.25413646173 
695	 1966.27270512547 
696	 1983.45207842951 
697	 2003.63206641817 
698	 2019.5457422827 
699	 2035.10133682346 
700	 2052.82192181685 
701	 2068.58812761805 
702	 2083.39057231195 
703	 2098.2243347331 
704	 2114.36186062931 
705	 2128.82281709686 
706	 2141.13194707168 
707	 2152.14101781761 
708	 2165.6633782848 
709	 2178.73267272812 
710	 2189.20845145543 
711	 2199.95752492276 
712	 2210.41884486279 
713	 2220.69447267946 
714	 2231.62861407577 
715	 2243.19224498918 
716	 2254.40184118497 
717	 2264.28436390875 
718	 2276.94234747409 
719	 2289.06129198931 
720	 2298.41101626233 
721	 2309.8740394756 
722	 2320.60823137968 
723	 2329.99326564714 
724	 2340.27662056569 
725	 2349.19073815683 
726	 2357.92031891531 
727	 2368.56952774367 
728	 2376.10258621635 
729	 2383.46681062634 
730	 2393.04437350929 
731	 2400.64104738474 
732	 2409.50771070053 
733	 2419.99233084229 
734	 2428.50670885259 
735	 2436.28376782086 
736	 2443.86895513035 
737	 2451.50403767584 
738	 2457.10742501581 
739	 2462.4205117583 
740	 2468.92884706404 
741	 2475.08838490107 
742	 2480.56478294654 
743	 2485.39702135263 
744	 2490.08034485885 
745	 2494.86353417517 
746	 2499.01443629696 
747	 2501.57622998539 
748	 2505.13823674636 
749	 2508.41071729541 
750	 2510.65070857331 
751	 2515.54113907588 
752	 2519.10720363725 
753	 2520.42832577902 
754	 2522.56346495853 
755	 2524.56595174057 
756	 2526.14008135541 
757	 2527.14785529485 
758	 2527.8598498977 
759	 2527.21332501907 
760	 2524.99971052445 
761	 2524.16258688594 
762	 2524.08951373866 
763	 2524.6355399123 
764	 2526.26927968 
765	 2527.88908980054 
766	 2529.28861676228 
767	 2530.29542547064 
768	 2527.59676184488 
769	 2524.74009855595 
770	 2523.98976448083 
771	 2521.25704295744 
772	 2518.12187499315 
773	 2515.4971477729 
774	 2513.7624170021 
775	 2511.21390479469 
776	 2507.76932237226 
777	 2503.96525402224 
778	 2500.33930042592 
779	 2496.2809444558 
780	 2491.27515232519 
781	 2485.2161062008 
782	 2479.22120304476 
783	 2473.13038891405 
784	 2465.71053595109 
785	 2459.43402298356 
786	 2453.93328305342 
787	 2447.98843529018 
788	 2440.6932296096 
789	 2432.78639018914 
790	 2425.32177091744 
791	 2420.37907183677 
792	 2412.26618219661 
793	 2401.82852612249 
794	 2393.94888975404 
795	 2384.45703046229 
796	 2373.70886307224 
797	 2363.25269130818 
798	 2355.48381233166 
799	 2347.78995001985 
800	 2338.71092657958 
801	 2328.4997825741 
802	 2320.27011222884 
803	 2312.81950912573 
804	 2303.09295131252 
805	 2293.50862905831 
806	 2283.85895198111 
807	 2273.70887997007 
808	 2263.08946188469 
809	 2252.92092821449 
810	 2242.8891753104 
811	 2231.25720941182 
812	 2221.05661311868 
813	 2211.22338118427 
814	 2199.83419819775 
815	 2189.39494204184 
816	 2178.90149135188 
817	 2167.88077015003 
818	 2157.91228729175 
819	 2147.48015198743 
820	 2136.09812404218 
821	 2123.97425160206 
822	 2112.29535306274 
823	 2100.63081710431 
824	 2088.56374737731 
825	 2077.51811045707 
826	 2066.5728934006 
827	 2055.61325827389 
828	 2045.92179435982 
829	 2035.77434138051 
830	 2023.24865318838 
831	 2007.09302954712 
832	 1993.35496888261 
833	 1979.89777673275 
834	 1965.12716874327 
835	 1951.63658930541 
836	 1940.14067260444 
837	 1930.45617646039 
838	 1921.58386065591 
839	 1913.95260752466 
840	 1906.8484339659 
841	 1899.35750250506 
842	 1891.11072656806 
843	 1881.80337591037 
844	 1870.94030323695 
845	 1857.29722234671 
846	 1846.08059145612 
847	 1836.17251701645 
848	 1824.0164185669 
849	 1811.35729937861 
850	 1799.18807583413 
851	 1787.65460551109 
852	 1774.78163499566 
853	 1763.15085592904 
854	 1752.52323318814 
855	 1740.56723697898 
856	 1726.75387894475 
857	 1713.37857184126 
858	 1701.74748794507 
859	 1686.29186892656 
860	 1669.00553818896 
861	 1652.42073763473 
862	 1639.76032160995 
863	 1625.21857027842 
864	 1608.70265062659 
865	 1591.80313463039 
866	 1572.63698466689 
867	 1553.56140886053 
868	 1535.92634134821 
869	 1518.60109170448 
870	 1500.67999672075 
871	 1482.94988815033 
872	 1466.99559373814 
873	 1450.65237504018 
874	 1436.9102277392 
875	 1427.57749977938 
876	 1418.82355204399 
877	 1413.51396778972 
878	 1410.39511148941 
879	 1405.02126896636 
880	 1400.91766652654 
881	 1398.6639040477 
882	 1397.56354156238 
883	 1394.77338761313 
884	 1391.15837575112 
885	 1386.87437812502 
886	 1381.12297144397 
887	 1374.68323757708 
888	 1367.3254254189 
889	 1358.73292299895 
890	 1349.83818816985 
891	 1340.37584565248 
892	 1330.31520575114 
893	 1320.15325476323 
894	 1309.12515376596 
895	 1298.27915897729 
896	 1288.85084536855 
897	 1277.59543146891 
898	 1266.36126364636 
899	 1256.06715946686 
900	 1244.52285710754 
901	 1234.77092746597 
902	 1225.46533771221 
903	 1213.60575600155 
904	 1203.01628217631 
905	 1191.97707994754 
906	 1179.37761798929 
907	 1167.23493904529 
908	 1155.07796477611 
909	 1143.11713878907 
910	 1131.69019348538 
911	 1117.99573270603 
912	 1104.70614080121 
913	 1093.77662338491 
914	 1083.01267661271 
915	 1071.70246822657 
916	 1059.83680982402 
917	 1048.06434429755 
918	 1038.16353873637 
919	 1028.56077672954 
920	 1018.04859803741 
921	 1008.24411188729 
922	 1000.01311501041 
923	 992.023265397834 
924	 981.547875370659 
925	 972.583355855329 
926	 965.862248522052 
927	 960.28409175023 
928	 951.279778232266 
929	 942.321096093038 
930	 934.363135129183 
931	 926.511214831562 
932	 919.594790575788 
933	 911.865058113866 
934	 902.476106114049 
935	 894.562981566034 
936	 887.018923670984 
937	 879.907057049152 
938	 873.896957274599 
939	 865.989008426645 
940	 857.693025571834 
941	 850.301995303226 
942	 841.987363803371 
943	 834.506654474736 
944	 827.221711734857 
945	 818.26046608544 
946	 811.396788232391 
947	 803.521932662133 
948	 793.349461806754 
949	 787.042256770445 
950	 779.42943392928 
951	 770.691355642107 
952	 763.501691745886 
953	 754.863757919287 
954	 746.571903640725 
955	 739.463719267392 
956	 731.209713298655 
957	 721.861836975552 
958	 712.298236460453 
959	 703.631039253894 
960	 694.703773668002 
961	 686.141347183489 
962	 678.006676283831 
963	 669.12285917643 
964	 661.569899978873 
965	 653.530560747246 
966	 1103.32985339646 
967	 1117.69535721793 
968	 1132.79940510101 
969	 1148.74375504137 
970	 1167.02090735285 
971	 1185.4978237922 
972	 1204.45532502546 
973	 1222.80925082915 
974	 1241.81222095076 
975	 1261.81258341285 
976	 1281.37949153887 
977	 1301.98568181504 
978	 1324.65508545153 
979	 1344.90427807982 
980	 1362.40056037291 
981	 1379.98312997782 
982	 1397.51947748174 
983	 1412.19859104429 
984	 1425.87253083611 
985	 1439.89349221322 
986	 1454.19617247007 
987	 1469.8026765738 
988	 1482.39177277324 
989	 1492.68195925237 
990	 1504.6220114484 
991	 1514.31695327982 
992	 1525.2227631368 
993	 1537.88095142842 
994	 1552.23398176236 
995	 1562.65416619038 
996	 1573.7439647724 
997	 1581.36910682691 
998	 1589.74125914343 
999	 1604.20618606658 
1000	 1613.35769416506 
1001	 1624.33904995513 
1002	 1638.39353748296 
1003	 1646.76083231489 
1004	 1656.49508186233 
1005	 1666.82325575699 
1006	 1678.43739833031 
1007	 1687.98616055597 
1008	 1696.53295583649 
1009	 1705.19901834955 
1010	 1717.45724121253 
1011	 1727.87552764681 
1012	 1737.45373038487 
1013	 1752.11824089633 
1014	 1762.53050747882 
1015	 1770.16349626044 
1016	 1778.68679357911 
1017	 1784.26361502213 
1018	 1789.81757799075 
1019	 1798.22775912187 
1020	 1808.10544088954 
1021	 1816.29206685342 
1022	 1820.99856142411 
1023	 1828.26623631944 
1024	 1834.51605262755 
1025	 1844.42871644972 
1026	 1855.34658119347 
1027	 1868.88703931941 
1028	 1883.1693259112 
1029	 1894.20806065602 
1030	 1904.54135287224 
1031	 1913.340215407 
1032	 1923.16243506019 
1033	 1933.09914828157 
1034	 1942.72233003912 
1035	 1958.3941554506 
1036	 1971.61066092411 
1037	 1983.0212237052 
1038	 1996.03695954528 
1039	 2004.93364706343 
1040	 2014.91386315415 
1041	 2024.37139505086 
1042	 2033.21494359954 
1043	 2040.93153102663 
1044	 2052.14279534787 
1045	 2060.38004535446 
1046	 2069.95792718298 
1047	 2079.47836683165 
1048	 2088.83897955471 
1049	 2100.64501804549 
1050	 2112.72299203136 
1051	 2128.91761785146 
1052	 2142.74353890072 
1053	 2151.99133465562 
1054	 2160.97800812099 
1055	 2165.73250859264 
1056	 2170.15952731159 
1057	 2178.62019557608 
1058	 2189.33874387411 
1059	 2200.26744498611 
1060	 2216.86436483027 
1061	 2229.01967987996 
1062	 2239.19968785232 
1063	 2249.48450953749 
1064	 2258.07410728091 
1065	 2261.59907787874 
1066	 2268.90978483494 
1067	 2277.8923857384 
1068	 2287.872703488 
1069	 2298.86253598244 
1070	 2310.00183606926 
1071	 2322.37648624403 
1072	 2334.81651498052 
1073	 2349.43115371746 
1074	 2361.42028001434 
1075	 2372.39264432362 
1076	 2381.91687599631 
1077	 2388.01717138422 
1078	 2398.00359005351 
1079	 2407.83659812655 
1080	 2419.98977202382 
1081	 2437.2917585956 
1082	 2450.44238406034 
1083	 2461.04962228519 
1084	 2475.34810866637 
1085	 2488.01798355789 
1086	 2497.52903807595 
1087	 2509.60084658681 
1088	 2520.80698858591 
1089	 2532.03598812847 
1090	 2551.06439300651 
1091	 2568.02628251191 
1092	 2587.97771148447 
1093	 2604.89095673213 
1094	 2619.88608689907 
1095	 2636.80334970653 
1096	 2655.00767309678 
1097	 2672.00607487471 
1098	 2689.10506815458 
1099	 2705.9693857343 
1100	 2721.51584600278 
1101	 2737.90396602291 
1102	 2754.75848064047 
1103	 2772.27692314444 
1104	 2790.51968318226 
1105	 2807.3290750565 
1106	 2826.01012296867 
1107	 2846.59189816132 
1108	 2865.63967626796 
1109	 2881.39693201086 
1110	 2896.20271599363 
1111	 2909.28649382805 
1112	 2920.59969469366 
1113	 2931.04358972349 
1114	 2938.62722063484 
1115	 2943.86052552964 
1116	 2947.34870027315 
1117	 2949.83279121908 
1118	 2947.7542727599 
1119	 2943.79593927376 
1120	 2935.11682622222 
1121	 2921.20962922888 
1122	 2905.5502239059 
1123	 2890.81948912073 
1124	 2866.55908786824 
1125	 2837.40751010617 
1126	 2802.4673877039 
1127	 2759.36071485834 
1128	 2705.50270783539 
1129	 2652.8784140086 
1130	 2595.33899630043 
1131	 2535.90379386521 
1132	 2472.84118600649 
1133	 2409.64216861504 
1134	 2340.37048599053 
1135	 2278.24240725421 
1136	 2215.09531549483 
1137	 2159.66794959798 
1138	 2105.20669718599 
1139	 2062.79108231123 
1140	 2023.76637957611 
1141	 1999.88592395268 
1142	 1988.45339519085 
1143	 1986.58776943404 
1144	 1994.54367254441 
1145	 2015.52518266088 
1146	 2048.35882192042 
1147	 2091.27959113248 
1148	 2145.50567260646 
1149	 2215.59424076799 
1150	 2284.83918013601 
1151	 2361.72528881059 
1152	 2443.14136129747 
1153	 2532.37231196943 
1154	 2618.75946970989 
1155	 2712.88428041882 
1156	 2799.17724279011 
1157	 2885.27893503667 
1158	 2962.89442492743 
1159	 3038.08759504578 
1160	 3105.07233719691 
1161	 3163.9218866807 
1162	 3217.63864460901 
1163	 3266.40646869127 
1164	 3307.80166770295 
1165	 3342.37530935381 
1166	 3370.71253269745 
1167	 3391.24603289799 
1168	 3406.938554373 
1169	 3418.69234057391 
1170	 3425.46267721551 
1171	 3429.91709148614 
1172	 3429.7055253756 
1173	 3430.97537546944 
1174	 3428.98619936598 
1175	 3428.99938112603 
1176	 3431.44037635761 
1177	 3429.07854087551 
1178	 3427.19959661261 
1179	 3418.20228916602 
1180	 3406.33688119674 
1181	 3388.016403001 
1182	 3362.44367709261 
1183	 3336.01348844965 
1184	 3304.00242166294 
1185	 3271.63679836386 
1186	 3235.53786557522 
1187	 3200.22559792083 
1188	 3162.34321909874 
1189	 3126.9430250959 
1190	 3092.25362377293 
1191	 3060.50600479737 
1192	 3026.13258488385 
1193	 2994.1916444883 
1194	 2964.21904715222 
1195	 2935.45732616334 
1196	 2913.05295172141 
1197	 2894.68538932753 
1198	 2881.25290065335 
1199	 2872.34492988292 
1200	 2868.71815035968 
1201	 2872.54638330226 
1202	 2875.61635591356 
1203	 2880.83945354534 
1204	 2890.46717414305 
1205	 2900.21311570378 
1206	 2917.45144111448 
1207	 2940.70550635295 
1208	 2968.09774857223 
1209	 3002.03425124371 
1210	 3037.62914438728 
1211	 3076.92434187295 
1212	 3120.77407364862 
1213	 3162.75503199407 
1214	 3208.05392648497 
1215	 3255.61918058138 
1216	 3299.83891093885 
1217	 3349.72841108803 
1218	 3399.92609347737 
1219	 3450.22788865318 
1220	 3507.59056085268 
1221	 3564.77448329503 
1222	 3625.55083129075 
1223	 3682.56541903252 
1224	 3738.88834281136 
1225	 3797.45271709813 
1226	 3854.86934726763 
1227	 3913.82421248782 
1228	 3976.96305711526 
1229	 4036.38119097234 
1230	 4095.31461992746 
1231	 4151.27643197368 
1232	 4205.24398388651 
1233	 4259.06683346994 
1234	 4309.65016335075 
1235	 4360.73318397214 
1236	 4413.01131630953 
1237	 4463.31868203984 
1238	 4510.41921414757 
1239	 4556.10246009711 
1240	 4599.81526494537 
1241	 4640.00623591911 
1242	 4677.80444343757 
1243	 4714.56711100042 
1244	 4749.48362761632 
1245	 4784.85015882724 
1246	 4819.46627504601 
1247	 4851.82672729434 
1248	 4884.78466945668 
1249	 4913.59379130127 
1250	 4941.55675923093 
1251	 4968.61830336732 
1252	 4994.60733062533 
1253	 5017.15895906052 
1254	 5042.43195610813 
1255	 5069.78647542784 
1256	 5092.84972007025 
1257	 5114.90126866048 
1258	 5135.58794336509 
1259	 5150.77577042743 
1260	 5170.01134495645 
1261	 5191.03201532852 
1262	 5212.93164980409 
1263	 5233.74028011445 
1264	 5252.6338639209 
1265	 5270.62232097493 
1266	 5288.37125007414 
1267	 5302.98787207574 
1268	 5318.61489430759 
1269	 5331.7071088005 
1270	 5341.08293718629 
1271	 5350.17058046853 
1272	 5357.9709817915 
1273	 5365.31197156926 
1274	 5369.91561397332 
1275	 5375.12754652004 
1276	 5379.40844723031 
1277	 5380.54995250945 
1278	 5380.27146648711 
1279	 5378.10606791638 
1280	 5374.53932411125 
1281	 5368.73623498482 
1282	 5358.81318281057 
1283	 5351.37611646317 
1284	 5342.97897149258 
1285	 5334.56994764496 
1286	 5329.2707023427 
1287	 5320.44788246162 
1288	 5309.44842437673 
1289	 5297.21691978654 
1290	 5284.94407952682 
1291	 5272.33551290221 
1292	 5261.29311276282 
1293	 5251.51910088473 
1294	 5242.81164425023 
1295	 5233.21163939225 
1296	 5227.21508048958 
1297	 5223.72777260138 
1298	 5220.38292791854 
1299	 5221.19616496302 
1300	 5222.45848410862 
1301	 5223.00635240703 
1302	 5225.30052237536 
1303	 5227.76321795603 
1304	 5231.26499805147 
1305	 5236.96481244973 
1306	 5243.02393223282 
1307	 5250.86271580812 
1308	 5259.20057384049 
1309	 5263.31427674196 
1310	 5268.02504851479 
1311	 5273.90250281605 
1312	 5278.01375265294 
1313	 5281.95737689792 
1314	 5284.50097241844 
1315	 5284.77419831285 
1316	 5285.82281519025 
1317	 5286.15771618979 
1318	 5285.40826260477 
1319	 5284.54536753544 
1320	 5283.23113280864 
1321	 5282.72180242946 
1322	 5285.07930759612 
1323	 5288.60223127777 
1324	 5293.37012165557 
1325	 5296.85779078741 
1326	 5300.03386740765 
1327	 5305.27807304833 
1328	 5310.93422389873 
1329	 5318.87614022688 
1330	 5327.79528638463 
1331	 5337.9897573136 
1332	 5348.63818275226 
1333	 5357.27979252224 
1334	 5367.94682004604 
1335	 5378.88364062454 
1336	 5387.47627666306 
1337	 5398.71308683836 
1338	 5410.49449168532 
1339	 5417.17958881559 
1340	 5425.33577810269 
1341	 5433.91130435504 
1342	 5439.74819941435 
1343	 5445.97730696804 
1344	 5453.3236597749 
1345	 5459.44961074395 
1346	 5465.59570974524 
1347	 5472.58379283739 
1348	 5482.04615683133 
1349	 5486.3842697563 
1350	 5489.71197755838 
1351	 5490.72656915467 
1352	 5490.16941458797 
1353	 5486.53181549283 
1354	 5480.95332800426 
1355	 5471.99718811128 
1356	 5460.67718815183 
1357	 5445.19061923202 
1358	 5427.32979464935 
1359	 5407.63693884828 
1360	 5383.27475700052 
1361	 5356.75428364272 
1362	 5329.69549822037 
1363	 5302.41569301734 
1364	 5274.13010234199 
1365	 5246.14225459054 
1366	 5220.26566667559 
1367	 5191.37880910547 
1368	 5159.51470976208 
1369	 5123.43885644262 
1370	 5084.23567516177 
1371	 5042.73967912935 
1372	 4998.16789633587 
1373	 4953.68339732377 
1374	 4905.26680125021 
1375	 4855.07467544676 
1376	 4802.20665195975 
1377	 4744.43090070115 
1378	 4685.91700933378 
1379	 4623.76168365089 
1380	 4561.69542115727 
1381	 4504.63870079735 
1382	 4452.29253199802 
1383	 4406.00548535749 
1384	 4363.59237931813 
1385	 4326.61766878583 
1386	 4294.53331475278 
1387	 4264.66076388464 
1388	 4240.46978309706 
1389	 4219.28075616249 
1390	 4200.11536090702 
1391	 4182.75409824967 
1392	 4168.43093555569 
1393	 4159.59166144764 
1394	 4147.72274448916 
1395	 4135.86570656138 
1396	 4125.35061227092 
1397	 4115.72786947069 
1398	 4103.08250300015 
1399	 4090.05488263301 
1400	 4075.15684567376 
1401	 4051.96229482837 
1402	 4029.39271663637 
1403	 4008.25785656952 
1404	 3984.45182022076 
1405	 3964.50214564571 
1406	 3946.13909581756 
1407	 3924.8914744853 
1408	 3910.19369530608 
1409	 3903.10282242479 
1410	 3896.70511799098 
1411	 3897.87064406515 
1412	 3903.8437564003 
1413	 3908.0510888845 
1414	 3919.16959941585 
1415	 3937.06598542597 
1416	 3955.50733588073 
1417	 3977.02116385817 
1418	 3999.61586223023 
1419	 4023.12657577021 
1420	 4048.68461228273 
1421	 4076.50573432341 
1422	 4105.26594051674 
1423	 4129.10814314062 
1424	 4153.09949094789 
1425	 4175.19380622665 
1426	 4193.54274726626 
1427	 4215.43593537017 
1428	 4235.77763823825 
1429	 4255.81517273803 
1430	 4275.05935339826 
1431	 4289.56056506449 
1432	 4304.12236082867 
1433	 4320.64963391505 
1434	 4339.71599175004 
1435	 4358.7192176172 
1436	 4377.54198467327 
1437	 4396.93608566415 
1438	 4415.61169441079 
1439	 4436.03368950194 
1440	 4458.5431862012 
1441	 4479.06386422669 
1442	 4499.35049104774 
1443	 4521.76158928651 
1444	 4544.41756070675 
1445	 4568.97962369806 
1446	 4596.41692370869 
1447	 4623.31341356441 
1448	 4653.36331203918 
1449	 4678.58194236541 
1450	 4700.62163792399 
1451	 4724.36256407094 
1452	 4746.56798397059 
1453	 4768.33529377719 
1454	 4792.95332581001 
1455	 4813.00886805698 
1456	 4828.75830307006 
1457	 4843.03040990029 
1458	 4854.16935129305 
1459	 4867.48913105211 
1460	 4879.05857140765 
1461	 4887.3184579807 
1462	 4895.8008145164 
1463	 4902.29843067778 
1464	 4905.67575045459 
1465	 4908.43096183594 
1466	 4910.56304217437 
1467	 4911.89408267564 
1468	 4916.86256322711 
1469	 4923.66193004518 
1470	 4930.94675905553 
1471	 4938.69371517739 
1472	 4946.17643176344 
1473	 4954.09201784851 
1474	 4962.39213753596 
1475	 4971.04995291851 
1476	 4979.22506685043 
1477	 4986.92436952768 
1478	 4992.55018851889 
1479	 4997.9936265598 
1480	 5005.27218540451 
1481	 5013.41042188288 
1482	 5021.86249942245 
1483	 5028.61502461223 
1484	 5034.91943981156 
1485	 5041.59614393617 
1486	 5047.33909208893 
1487	 5057.59912637592 
1488	 5070.19756891442 
1489	 5080.72478732447 
1490	 5095.78200463181 
1491	 5109.68968618823 
1492	 5121.33494721326 
1493	 5135.94886431377 
1494	 5150.94306998672 
1495	 5165.50566445159 
1496	 5178.10627473407 
1497	 5192.10481108659 
1498	 5204.63587835339 
1499	 5216.21495714573 
1500	 5231.80099282343 
1501	 5244.01884967796 
1502	 5253.759199476 
1503	 5261.37578047029 
1504	 5266.50011648991 
1505	 5273.88787114384 
1506	 5279.57581711342 
1507	 5285.6066505954 
1508	 5288.9037242382 
1509	 5287.30870522568 
1510	 5287.19246470774 
1511	 5287.78561511723 
1512	 5291.32104898028 
1513	 5296.93581942663 
1514	 5304.63523276687 
1515	 5313.30602561618 
1516	 5322.47783991701 
1517	 5331.15057166946 
1518	 5334.14332769126 
1519	 5336.6273709866 
1520	 5339.59796161043 
1521	 5342.30572367679 
1522	 5345.58250818338 
1523	 5349.34852023357 
1524	 5353.87467671253 
1525	 5356.6944985462 
1526	 5360.48014669655 
1527	 5365.06959844822 
1528	 5365.08101455501 
1529	 5362.59053544008 
1530	 5359.92881619222 
1531	 5357.2028487921 
1532	 5356.42157610578 
1533	 5357.23971057853 
1534	 5359.43774479991 
1535	 5360.99740945608 
1536	 5363.35853767342 
1537	 5363.83148862219 
1538	 5361.24502816638 
1539	 5362.64902266219 
1540	 5363.23170999089 
1541	 5363.19387856647 
1542	 5363.5349230505 
1543	 5361.11308535447 
1544	 5360.25730039225 
1545	 5358.98060805583 
1546	 5357.8360495384 
1547	 5356.61847064852 
1548	 5354.17404009718 
1549	 5352.33564062341 
1550	 5350.94135241058 
1551	 5348.62904674294 
1552	 5341.67797826903 
1553	 5332.74749248247 
1554	 5322.77979959361 
1555	 5314.87854554555 
1556	 5308.42026337827 
1557	 5298.9486438483 
1558	 5291.90467293962 
1559	 5282.19054671933 
1560	 5269.64151370569 
1561	 5257.98242606346 
1562	 5239.2992293797 
1563	 5218.16202225861 
1564	 5197.89360151632 
1565	 5175.02811533204 
1566	 5154.47174934165 
1567	 5135.46874674614 
1568	 5114.02303843297 
1569	 5092.65783366093 
1570	 5070.04013303642 
1571	 5048.35413909766 
1572	 5029.17804769091 
1573	 5009.7785849904 
1574	 4990.93801373824 
1575	 4972.02403834132 
1576	 4955.58579343685 
1577	 4939.7863343582 
1578	 4923.23873411148 
1579	 4906.23868801703 
1580	 4888.97230325795 
1581	 4872.1176050509 
1582	 4855.29864005216 
1583	 4841.18537431772 
1584	 4824.45446823417 
1585	 4802.82863541422 
1586	 4780.26785716104 
1587	 4756.56850594173 
1588	 4732.13511522128 
1589	 4708.70837824517 
1590	 4686.63015547002 
1591	 4663.62292561242 
1592	 4638.76886081342 
1593	 4612.64426288588 
1594	 4584.80656262382 
1595	 4556.8609218991 
1596	 4527.21071846559 
1597	 4495.0198541903 
1598	 4462.54094512427 
1599	 4427.11525890912 
1600	 4390.54826404572 
1601	 4352.00635208589 
1602	 4310.89200809754 
1603	 4271.50374888744 
1604	 4229.74209133298 
1605	 4185.47283099356 
1606	 4140.26735797369 
1607	 4092.71115223862 
1608	 4045.04307987202 
1609	 3993.10592994083 
1610	 3935.98368199254 
1611	 3873.73041032196 
1612	 3803.23089265345 
1613	 3731.6806197096 
1614	 3658.07650043315 
1615	 3577.16327190285 
1616	 3491.14377428803 
1617	 3395.84462977447 
1618	 3292.43432235632 
1619	 3184.88964683326 
1620	 3068.98397154347 
1621	 2950.01824192627 
1622	 2827.82413192981 
1623	 2704.07819053244 
1624	 2583.78316543548 
1625	 2462.52462488265 
1626	 2338.41399748588 
1627	 2215.50503188777 
1628	 2096.9581393752 
1629	 1986.02312458053 
1630	 1885.97122618605 
1631	 1797.21258394512 
1632	 1718.61441919095 
1633	 1646.14598766699 
1634	 1585.64170427521 
1635	 1532.17287625311 
1636	 1484.37080571219 
1637	 1447.55126665303 
1638	 1421.17726599362 
1639	 1401.74473712571 
1640	 1394.51315232814 
1641	 1388.69283357977 
1642	 1393.05888429291 
1643	 1393.23977347695 
1644	 1395.2251553467 
1645	 1394.49970058242 
1646	 1392.91012418495 
1647	 1387.4284758928 
1648	 1384.7406107883 
1649	 1370.16638079176 
1650	 1351.6393356134 
1651	 1320.68534924793 
1652	 1278.06816518777 
1653	 1227.64054887121 
1654	 1165.52987423 
1655	 1099.7846909915 
1656	 1024.42670858809 
1657	 949.439685791972 
1658	 868.768395480846 
1659	 790.131263113661 
1660	 706.309097126972 
1661	 631.94919761939 
1662	 559.961695727186 
1663	 495.035187326214 
1664	 436.517049212013 
1665	 383.907967535184 
1666	 335.680288730957 
1667	 294.232134830409 
1668	 261.457518242636 
1669	 229.653640730632 
1670	 201.543083155834 
1671	 179.25522927006 
1672	 161.34697240045 
1673	 146.994844523514 
1674	 139.395610523939 
1675	 130.526158789802 
1676	 123.471176506047 
1677	 117.471822882589 
1678	 112.870473671254 
1679	 110.116524095424 
1680	 108.662554453024 
1681	 108.87069508391 
1682	 110.994432135147 
1683	 114.76472357838 
1684	 119.504313073163 
1685	 125.457064251402 
1686	 130.371420320253 
1687	 133.45434457618 
1688	 136.257413856775 
1689	 135.875775457121 
1690	 138.694621780257 
1691	 144.134165185526 
1692	 148.268492159173 
1693	 153.128682015759 
1694	 158.717364021231 
1695	 163.152855200054 
1696	 168.921233453137 
1697	 178.20790611506 
1698	 184.568843902631 
1699	 187.826691900299 
1700	 194.246469141363 
1701	 202.289808023127 
1702	 208.282414691629 
1703	 216.719962188619 
1704	 221.557924587522 
1705	 220.361832552561 
1706	 224.035805179367 
1707	 228.474363889502 
1708	 234.320305914892 
1709	 243.719582056824 
1710	 251.001576616605 
1711	 258.677812692286 
1712	 264.399823714215 
1713	 269.702836445924 
1714	 272.549892130191 
1715	 272.331766711645 
1716	 274.226726174983 
1717	 274.495447636897 
1718	 277.412622193203 
1719	 282.558848422974 
1720	 286.751868648842 
1721	 291.368030470518 
1722	 296.959772375731 
1723	 302.884306098932 
1724	 308.807020835818 
1725	 314.851316276155 
1726	 322.121355499993 
1727	 332.419277199278 
1728	 343.766861331215 
1729	 355.485066053944 
1730	 367.2457716573 
1731	 377.34916974751 
1732	 391.403027592289 
1733	 402.926186398887 
1734	 415.832628489706 
1735	 424.419356622116 
1736	 428.20729594901 
1737	 432.576478675893 
1738	 436.707442609955 
1739	 435.86488910219 
1740	 433.681403419433 
1741	 427.840821979104 
1742	 416.401098325415 
1743	 404.460460763369 
1744	 390.253147955503 
1745	 375.446095715891 
1746	 356.240828103314 
1747	 341.710199652883 
1748	 328.745350435529 
1749	 317.534855328375 
1750	 308.325512568654 
1751	 301.468733797207 
1752	 296.188141783801 
1753	 291.591242652281 
1754	 289.527217063885 
1755	 287.53760562114 
1756	 210.338060398847 
1757	 221.013994607454 
1758	 241.397844288449 
1759	 251.386562432572 
1760	 256.524893320529 
1761	 273.503427466651 
1762	 284.648285984751 
1763	 285.341870561636 
1764	 289.504415021702 
1765	 290.078943422779 
1766	 301.22962677334 
1767	 316.390975964871 
1768	 330.944151743946 
1769	 352.571874341567 
1770	 378.303273009039 
1771	 396.269336997472 
1772	 403.556932879922 
1773	 415.50538139386 
1774	 426.852964550941 
1775	 442.333894056135 
1776	 462.605512901057 
1777	 475.294872388575 
1778	 491.211180699408 
1779	 492.922103968294 
1780	 486.482517663645 
1781	 492.621643131107 
1782	 492.030209000993 
1783	 491.875257798678 
1784	 496.063293798602 
1785	 507.079461188608 
1786	 505.600488989213 
1787	 520.204614707861 
1788	 542.880115270656 
1789	 561.726265797955 
1790	 585.637085117794 
1791	 597.994519706292 
1792	 613.15512839841 
1793	 630.968169045388 
1794	 641.950945098811 
1795	 646.511784086708 
1796	 657.190391335095 
1797	 658.106576036127 
1798	 651.398607537637 
1799	 667.854421729537 
1800	 679.264032005602 
1801	 682.899255137047 
1802	 689.161953835801 
1803	 696.980584029593 
1804	 698.275865415067 
1805	 702.454987086607 
1806	 707.357308202265 
1807	 724.606213635007 
1808	 732.126031981959 
1809	 736.906258267352 
1810	 750.797390756277 
1811	 758.14257320354 
1812	 767.286782154126 
1813	 779.044154690887 
1814	 784.58139502419 
1815	 783.617361999593 
1816	 788.436847389496 
1817	 794.638300819007 
1818	 798.491455715017 
1819	 798.729846722292 
1820	 797.7645190288 
1821	 807.813158678169 
1822	 821.829370341542 
1823	 833.034316730125 
1824	 860.839304237682 
1825	 870.574417879082 
1826	 861.64905375398 
1827	 861.917843099263 
1828	 854.430345125242 
1829	 858.957471715674 
1830	 862.29125619324 
1831	 873.100296235477 
1832	 877.13079997317 
1833	 880.918526153897 
1834	 882.968461643478 
1835	 879.042080045958 
1836	 881.144163971609 
1837	 885.430390542737 
1838	 890.070741991789 
1839	 902.687958318119 
1840	 908.146359872689 
1841	 910.33241244875 
1842	 909.700721232005 
1843	 907.338497479268 
1844	 897.603256313138 
1845	 894.529857617842 
1846	 887.38973613627 
1847	 887.704055524648 
1848	 897.140790920351 
1849	 900.573596149182 
1850	 908.364713564209 
1851	 930.642930102271 
1852	 938.766607395233 
1853	 941.525801133245 
1854	 950.116626939919 
1855	 953.651056211984 
1856	 961.077522504423 
1857	 978.651413294981 
1858	 986.748617476361 
1859	 988.479300091268 
1860	 987.689409307695 
1861	 983.27652404745 
1862	 988.552544327011 
1863	 997.951722377465 
1864	 1014.77835257494 
1865	 1027.32658166518 
1866	 1047.02519461987 
1867	 1057.92344891229 
1868	 1060.28548697507 
1869	 1068.84962041289 
1870	 1081.1507025039 
1871	 1087.91790664236 
1872	 1096.41880713942 
1873	 1115.5878188028 
1874	 1132.40395115042 
1875	 1142.23956496497 
1876	 1154.23368174721 
1877	 1168.92648287404 
1878	 1179.94733155204 
1879	 1184.92772403444 
1880	 1188.36762503598 
1881	 1190.50445180985 
1882	 1185.6152647632 
1883	 1174.40767451171 
1884	 1158.96907557348 
1885	 1143.8381001308 
1886	 1132.12662442796 
1887	 1118.92856194123 
1888	 1107.05678620007 
1889	 1093.42123402218 
1890	 1076.99035614462 
1891	 1058.11261648833 
1892	 1025.70973657455 
1893	 994.905965621148 
1894	 964.49387954455 
1895	 929.065853186901 
1896	 899.908630516211 
1897	 879.637773671686 
1898	 873.491662523631 
1899	 863.485018790731 
1900	 853.813350291381 
1901	 852.784470676616 
1902	 850.354081321194 
1903	 852.520925837665 
1904	 874.277106711949 
1905	 887.986793717803 
1906	 902.171961086668 
1907	 917.717189242203 
1908	 931.912272313753 
1909	 939.818828537287 
1910	 956.237341245372 
1911	 979.94473931871 
1912	 998.945461162753 
1913	 1022.21634849173 
1914	 1033.54665290354 
1915	 1046.18568538963 
1916	 1053.98329074684 
1917	 1054.89379751919 
1918	 1056.27224166477 
1919	 1063.52634850776 
1920	 1075.36251712487 
1921	 1084.01203507659 
1922	 1101.24251094445 
1923	 1106.02202257436 
1924	 1102.76453786449 
1925	 1093.74183411048 
1926	 1071.70541814683 
1927	 1057.24461853316 
1928	 1042.92299145021 
1929	 1039.91168706121 
1930	 1036.74196979293 
1931	 1045.52733167566 
1932	 1042.22693338967 
1933	 1038.08929417658 
1934	 1026.18527449358 
1935	 1001.75789180312 
1936	 989.307664637991 
1937	 971.340029812838 
1938	 964.201125318112 
1939	 965.842848226157 
1940	 973.220853206064 
1941	 986.299887654533 
1942	 1008.02487448906 
1943	 1024.66761782212 
1944	 1048.41491627397 
1945	 1065.40073723923 
1946	 1071.98198661608 
1947	 1091.58488508697 
1948	 1116.1325616111 
1949	 1141.08132669081 
1950	 1181.80584690854 
1951	 1207.04453166821 
1952	 1223.11302163412 
1953	 1237.90649038006 
1954	 1256.10069389956 
1955	 1271.32320468739 
1956	 1283.21674047589 
1957	 1299.37274379981 
1958	 1308.79935345145 
1959	 1306.43357237964 
1960	 1310.27293960765 
1961	 1316.8100973636 
1962	 1321.68077846337 
1963	 1326.19232987929 
1964	 1329.717558751 
1965	 1336.89819019531 
1966	 1336.19548881836 
1967	 1335.014733791 
1968	 1331.93816134259 
1969	 1327.20270513903 
1970	 1315.93605854766 
1971	 1312.26936059153 
1972	 1310.89233469747 
1973	 1307.35651649864 
1974	 1304.55296583706 
1975	 1304.39408682883 
1976	 1303.07192669273 
1977	 1305.43069371158 
1978	 1312.44193817623 
1979	 1320.1370054449 
1980	 1329.16888027098 
1981	 1340.62706720815 
1982	 1347.42664506274 
1983	 1358.25088555414 
1984	 1358.92273380702 
1985	 1349.43092531181 
1986	 1344.9413178241 
1987	 1343.04421141802 
1988	 1331.97239222652 
1989	 1314.18597982527 
1990	 1300.20836597852 
1991	 1281.4733956032 
1992	 1258.7832980003 
1993	 1246.36483678614 
1994	 1247.97245894061 
1995	 1243.24950073807 
1996	 1245.78707640145 
1997	 1235.85136729663 
1998	 1216.46756385599 
1999	 1203.87959115187 
2000	 1182.50576090366 
2001	 1171.98895581514 
2002	 1175.75792506212 
2003	 1173.6453609875 
2004	 1170.22201137701 
2005	 1173.20336144736 
2006	 1171.58687547022 
2007	 1154.29210562051 
2008	 1138.82301731281 
2009	 1118.22823103545 
2010	 1104.70419638669 
2011	 1092.9698826948 
2012	 1083.40575583273 
2013	 1077.27732375104 
2014	 1073.64625931942 
2015	 1073.87272404959 
2016	 1068.0775296101 
2017	 1061.5108662741 
2018	 1058.02926171865 
2019	 1054.30364985744 
2020	 1046.75308703788 
2021	 1045.9807654616 
2022	 1036.77172586925 
2023	 1017.94249045368 
2024	 1004.43017581741 
2025	 992.697078245734 
2026	 980.322856048272 
2027	 971.413597377895 
2028	 967.099370665652 
2029	 964.08648269428 
2030	 970.248293617641 
2031	 965.727503789175 
2032	 962.158857147396 
2033	 942.329161528391 
2034	 930.036015012081 
2035	 909.019921043549 
2036	 894.010467152786 
2037	 894.152525082848 
2038	 887.80322887079 
2039	 880.918005228591 
2040	 880.269498171821 
2041	 874.784968526828 
2042	 868.321065856892 
2043	 860.6210007794 
2044	 854.087749860656 
2045	 840.651028733405 
2046	 838.364324073622 
2047	 843.764240828877 
2048	 846.28525672584 
2049	 854.541709776782 
2050	 861.432942060266 
2051	 860.868362394891 
2052	 858.107561697889 
2053	 858.33350473102 
2054	 860.255819737336 
2055	 855.842684744571 
2056	 856.465018034078 
2057	 844.309003970537 
2058	 826.401119359393 
2059	 818.871968598288 
2060	 809.954607559259 
2061	 809.573999801545 
2062	 827.637743994458 
2063	 834.487305506373 
2064	 844.457515486853 
2065	 841.351641153929 
2066	 838.546956444386 
2067	 822.069071346742 
2068	 797.717158594735 
2069	 787.554903160415 
2070	 778.973666326855 
2071	 768.501920674034 
2072	 772.388570301863 
2073	 782.794782939647 
2074	 776.130646067312 
2075	 771.013572380108 
2076	 763.071223170233 
2077	 740.471173751989 
2078	 730.612975923151 
2079	 727.605950845929 
2080	 721.363851419318 
2081	 716.723463539118 
2082	 718.447708019976 
2083	 712.202905084552 
2084	 713.103215147824 
2085	 707.36050098223 
2086	 694.713975232159 
2087	 681.710008279867 
2088	 663.392076609966 
2089	 662.540426049555 
2090	 658.486141552486 
2091	 648.263601591 
2092	 644.27203931968 
2093	 628.55634381696 
2094	 612.326980123416 
2095	 599.990412621965 
2096	 592.337301306631 
2097	 583.527761245128 
2098	 575.311660420594 
2099	 566.750566561823 
2100	 563.050231855849 
2101	 543.802696312009 
2102	 524.671983433482 
2103	 509.551448675674 
2104	 493.21894246889 
2105	 493.332203355898 
2106	 497.248510418145 
2107	 491.972677665762 
2108	 478.270218326552 
2109	 460.828987593146 
2110	 437.130161677345 
2111	 408.679625857262 
2112	 381.28444158511 
2113	 358.247170105506 
2114	 337.101250333378 
2115	 314.811536298486 
2116	 301.186091056246 
2117	 294.193085973955 
2118	 282.267607972165 
2119	 273.336234053995 
2120	 265.303542631913 
2121	 249.745435262246 
2122	 244.781270480242 
2123	 231.327588378452 
2124	 217.645952289482 
2125	 205.754971945113 
2126	 190.822508683559 
2127	 182.387217023414 
2128	 177.654133239975 
2129	 169.82835187906 
2130	 155.5497752187 
2131	 139.839733892202 
2132	 118.831796265478 
2133	 90.2341679108466 
2134	 68.3622820779341 
2135	 56.4134908216483 
2136	 48.9581287039491 
2137	 45.9973684093441 
2138	 60.1226487566258 
2139	 62.5990263339095 
2140	 61.2543562248864 
2141	 60.3314782001251 
2142	 52.6965271131083 
2143	 50.2043635645956 
2144	 54.822822832877 
2145	 58.3931858568966 
2146	 71.9124884732466 
2147	 83.8157265644586 
2148	 84.3992845369885 
2149	 75.6207826489023 
2150	 70.6319124614494 
2151	 64.526365366614 
2152	 61.455491000117 
2153	 61.5410253209426 
2154	 48.4782117363102 
2155	 33.589109054657 
2156	 15.6360328680076 
2157	 4.79097342950083 
2158	 4.33901456748933 
2159	 17.0388236327508 
2160	 25.4569232690333 
2161	 45.9339077371275 
2162	 52.7545236613647 
2163	 51.9052908722659 
2164	 51.8322835082535 
2165	 48.5871296124062 
2166	 48.0384978723555 
2167	 64.1571216950055 
2168	 68.7943510234763 
2169	 68.9854680452785 
2170	 71.4510360886064 
2171	 57.5453297147948 
2172	 48.7626708911269 
2173	 45.2410091654258 
2174	 40.8536695715317 
2175	 47.3881646718097 
2176	 57.4105869959461 
2177	 64.355749840213 
2178	 72.1645341483399 
2179	 66.4852359924917 
2180	 54.157461444399 
2181	 52.1518459919118 
2182	 58.1330848718297 
2183	 62.0595362569006 
2184	 73.626538395387 
2185	 80.0509117193438 
2186	 76.7612277506892 
2187	 79.8476438087381 
2188	 84.7906885205025 
2189	 102.068763418012 
2190	 105.635776478229 
2191	 122.370840612952 
2192	 133.135302557285 
2193	 128.491351671517 
2194	 137.109727488806 
2195	 137.562952756629 
2196	 135.408329445613 
2197	 145.018499861659 
2198	 152.677503146713 
2199	 160.763138611806 
2200	 175.862996818991 
2201	 186.342200995612 
2202	 189.526220062656 
2203	 187.420355228192 
2204	 176.63064449214 
2205	 169.557913528514 
2206	 170.86924281439 
2207	 180.003656051306 
2208	 189.642848124401 
2209	 189.573529355713 
2210	 184.808678702412 
2211	 165.267212313564 
2212	 157.963296725372 
2213	 153.497079664297 
2214	 152.240091736299 
2215	 155.648764102187 
2216	 157.873455935293 
2217	 155.730772133297 
2218	 157.04256390619 
2219	 161.213253289897 
2220	 175.509933512107 
2221	 176.558218240636 
2222	 188.561044177113 
2223	 190.200161527794 
2224	 178.733630658581 
2225	 174.249182540238 
2226	 165.932852651734 
2227	 160.661181819999 
2228	 158.486862477623 
2229	 150.37049137105 
2230	 151.353972221975 
2231	 150.120130499865 
2232	 146.920512255387 
2233	 155.657857167258 
2234	 153.51084870864 
2235	 149.238563629397 
2236	 141.703631006897 
2237	 124.848566593114 
2238	 116.171411289944 
2239	 105.995502130215 
2240	 99.5957610167167 
2241	 101.240149080956 
2242	 99.7990741715287 
2243	 105.631897445819 
2244	 123.202266826875 
2245	 132.297679824566 
2246	 148.649587336432 
2247	 146.406523871798 
2248	 131.971066302322 
2249	 116.966238110101 
2250	 82.0562579015658 
2251	 65.3524459074849 
2252	 50.7417388946636 
2253	 46.6694144278418 
2254	 62.4637717900755 
2255	 68.5694850620707 
2256	 74.8470107821978 
2257	 86.5093907703393 
2258	 89.5938459106165 
2259	 82.6703885677423 
2260	 85.8598720068987 
2261	 72.0896469834283 
2262	 47.345055712264 
2263	 32.1423036020254 
2264	 17.2933666627646 
2265	 16.8314798487491 
2266	 32.3773109783367 
2267	 49.0381572977792 
2268	 56.542283717343 
2269	 52.0763673763771 
2270	 40.7879541035778 
2271	 27.3875698086459 
2272	 16.1156355809052 
2273	 14.6340813940442 
2274	 14.3909197890694 
2275	 12.9290516519777 
2276	 17.7998038130855 
2277	 18.7046912123522 
2278	 24.0437748117441 
2279	 26.5223924718581 
2280	 21.342071823799 
2281	 15.2345822458669 
2282	 9.23988862062409 
2283	 6.97328140706907 
2284	-4.33969158663097 
2285	-7.22571997985865 
2286	-11.6199903607789 
2287	-24.2854717111512 
2288	-29.5197107317091 
2289	-26.9363980722004 
2290	-28.9836408271386 
2291	-32.3865365016346 
2292	-27.2428581906337 
2293	-18.9251191360503 
2294	-7.53884556465425 
2295	 15.1340498223893 
2296	 24.8374248051605 
2297	 30.4258386953904 
2298	 32.066563621741 
2299	 28.7233843467891 
2300	 19.2657735680687 
2301	-0.473277114838994 
2302	-11.07570599835 
2303	-29.8155791146117 
2304	-33.667734994206 
2305	-15.0227513355914 
2306	-10.773507839896 
2307	-7.26201704638168 
2308	-4.23079864961139 
2309	-9.70443709669043 
2310	-13.1399703220122 
2311	-4.85284062022082 
2312	 6.95857726011801 
2313	 23.849537386284 
2314	 29.4084499896413 
2315	 30.1131959040194 
2316	 18.504351013086 
2317	 1.38523459075532 
2318	 0.414265384891496 
2319	-2.5731708086206 
2320	 0.723248371849647 
2321	 10.5230860208894 
2322	 6.69154730806406 
2323	 6.40978286209889 
2324	 11.4123472372641 
2325	 10.9777569252449 
2326	 8.6614001379881 
2327	 14.2617914179514 
2328	 20.5827434706073 
2329	 13.7317823690051 
2330	 14.299464022634 
2331	 13.0127254767067 
2332	-1.36381864616111 
2333	-6.22369150165818 
2334	-9.27173035443574 
2335	-9.65573482961851 
2336	-4.10755122638302 
2337	 0.13042838111642 
2338	 9.77643410410013 
2339	 13.3062443505071 
2340	 7.99771330645629 
2341	 10.47180722982 
2342	 7.65409768540126 
2343	 2.36101700558175 
2344	 9.06780515972004 
2345	 8.6937237750753 
2346	 12.0601672270402 
2347	 23.296305227277 
2348	 24.684255211817 
2349	 29.7171210863522 
2350	 35.3436894904493 
2351	 25.5634332095391 
2352	 14.0922857816829 
2353	 11.0993464972011 
2354	 2.08738835733054 
2355	-9.31868891857101 
2356	-14.5188519576493 
2357	-25.188296723151 
2358	-27.5312555444849 
2359	-16.3573283200453 
2360	 1.60440074112771 
2361	 16.6880729544049 
2362	 17.2289609292271 
2363	 17.4406454133756 
2364	 10.1612797311507 
2365	 1.43454880857524 
2366	 0.648758505412226 
2367	 0.18084827548261 
2368	 3.67634913350541 
2369	 6.5760446005145 
2370	 19.0131951635319 
2371	 31.6200356288194 
2372	 33.9748158443358 
2373	 41.8216636900446 
2374	 38.3256003917419 
2375	 35.3276416241316 
2376	 41.1055337577315 
2377	 40.0531265681727 
2378	 46.6927661478072 
2379	 54.4630187138113 
2380	 52.0565725072866 
2381	 50.3577726392959 
2382	 48.4693839020087 
2383	 35.767698002196 
2384	 31.112404992158 
2385	 27.9265483881572 
2386	 16.0378602485886 
2387	 15.0095662427846 
2388	 13.2158069190348 
2389	 10.3904354326047 
2390	 9.7449553121552 
2391	-3.29236454600513 
2392	-19.8657452575351 
2393	-29.3798202859283 
2394	-28.2453271683704 
2395	-15.5791493934373 
2396	-4.20241221000531 
2397	 4.31714116551611 
2398	 8.25027484846561 
2399	-2.94638276845248 
2400	-10.9430407734841 
2401	-11.2182092670723 
2402	-18.0861729057508 
2403	-17.9686334585178 
2404	-7.58458446612471 
2405	-7.31304170528597 
2406	-12.529944437603 
2407	-8.2338186756011 
2408	-8.75532074027311 
2409	-10.1184704891426 
2410	-5.7167838621034 
2411	-6.90418860113448 
2412	-4.44601499921628 
2413	 0.240172158999517 
2414	-3.39366691434133 
2415	-4.08165382812221 
2416	-10.195264158344 
2417	-26.3597607685989 
2418	-35.5458518885208 
2419	-40.0588382048221 
2420	-42.872266010004 
2421	-37.0905809417987 
2422	-19.0683624847741 
2423	-0.85018921467326 
2424	 11.2279501251486 
2425	 9.75014275184946 
2426	-3.48413727307846 
2427	-21.8610047889977 
2428	-39.6617732439556 
2429	-31.867609896642 
2430	-13.4351253427078 
2431	 9.62846105687112 
2432	 36.8200949212321 
2433	 42.3536961725951 
2434	 37.8997836392565 
2435	 26.6596378026031 
2436	 12.8629040540207 
2437	 9.39239020786051 
2438	 7.19912154605553 
2439	 3.1224353132585 
2440	-3.53937460220959 
2441	-13.3408089623562 
2442	-17.2944097153836 
2443	-12.2863535027186 
2444	-2.88034962352177 
2445	 4.88837239834377 
2446	 1.16352267980663 
2447	-7.70786974345183 
2448	-21.5369387023127 
2449	-34.6467198892612 
2450	-32.1646139435869 
2451	-25.9825517549937 
2452	-15.6697482156828 
2453	-10.1986488420087 
2454	-9.05742051571238 
2455	-8.43187274308945 
2456	-11.811506369925 
2457	 2.02030000888077 
2458	 16.5476251749641 
2459	 24.7003617485529 
2460	 27.6953712783324 
2461	 16.9978419387949 
2462	 2.07554588882437 
2463	-9.22866106933655 
2464	-9.25218621804729 
2465	-5.87376263406632 
2466	-4.85661010330524 
2467	-2.49660647639112 
2468	 0.627410110771442 
2469	 4.17974669244556 
2470	-1.24212953098815 
2471	-5.8840934865748 
2472	-12.646380893735 
2473	-26.6959324460844 
2474	-28.7584126111853 
2475	-31.384561790051 
2476	-38.8500954774624 
2477	-31.8793362977704 
2478	-21.9911863604177 
2479	-11.2949475019559 
2480	 5.58241674395984 
2481	 10.4601986221939 
2482	 9.41813031150802 
2483	 7.52221395339634 
2484	 5.61148106223309 
2485	 2.86205145027298 
2486	 2.05857501195727 
2487	 18.8367509847202 
2488	 22.6798365050151 
2489	 21.3359388463792 
2490	 20.6728313818931 
2491	-0.420817799673689 
2492	-10.3591656938814 
2493	-8.57567722434417 
2494	-8.74011893603299 
2495	-4.12739759734102 
2496	 1.57647801210929 
2497	 10.9229582507332 
2498	 21.5151699384189 
2499	 25.022966483038 
2500	 21.2973488739894 
