Wavelength	reference_whiteABS00000.asd
350	 17.8527421805438 
351	 18.9149804126334 
352	 20.3463557672653 
353	 21.5008848240411 
354	 22.6846426267079 
355	 24.0288888992553 
356	 25.5480582325964 
357	 27.0507136285215 
358	 28.1942333334626 
359	 28.9721813040003 
360	 29.6643503252767 
361	 29.8977685932029 
362	 31.0195275944264 
363	 33.6824116733559 
364	 34.0534500645014 
365	 34.1129423941641 
366	 34.7896303191017 
367	 35.5157235434311 
368	 36.3157399466291 
369	 37.1941714703514 
370	 38.2827839759172 
371	 40.6188586590593 
372	 42.2572600462624 
373	 42.4132917751144 
374	 42.908196767884 
375	 42.9097523438094 
376	 43.3652942753006 
377	 45.7624469483019 
378	 47.1240229159772 
379	 48.3929333428053 
380	 50.4087076188887 
381	 51.7494450150192 
382	 53.8550320533447 
383	 56.7259002511592 
384	 59.1221355261429 
385	 60.4829068623834 
386	 62.2674764967648 
387	 65.8875162517677 
388	 69.8103645168626 
389	 73.6945184617583 
390	 77.4694942270122 
391	 81.355926694018 
392	 85.1357376672777 
393	 90.3101536003402 
394	 98.3297464823789 
395	 102.973935324263 
396	 107.945581501905 
397	 115.995336681438 
398	 124.215063118579 
399	 133.500766314155 
400	 143.60998095596 
401	 153.553820612302 
402	 165.9308686786 
403	 178.803119020537 
404	 190.455141162053 
405	 205.174576364298 
406	 222.769967302621 
407	 241.783452412099 
408	 258.74492939919 
409	 279.424903032349 
410	 302.423278646747 
411	 323.803047452306 
412	 347.181712657843 
413	 373.222521620307 
414	 401.053849851983 
415	 426.613203684054 
416	 453.248978683283 
417	 481.36252543579 
418	 508.84048162587 
419	 536.88261428326 
420	 564.86583595633 
421	 592.152588320707 
422	 620.92626537616 
423	 648.640849739061 
424	 674.185757370942 
425	 699.52653994319 
426	 724.437391592522 
427	 749.187936510102 
428	 774.07038381188 
429	 796.727246700793 
430	 818.720629342384 
431	 841.338287166106 
432	 862.01877040024 
433	 881.627219685059 
434	 900.626738894549 
435	 918.879393519214 
436	 937.216252645457 
437	 955.422880399398 
438	 972.880460324269 
439	 989.625517055336 
440	 1005.65377391555 
441	 1021.05934026919 
442	 1036.08524697996 
443	 1051.31440344496 
444	 1066.56051433685 
445	 1080.91594200594 
446	 1095.2205686619 
447	 1110.17725023471 
448	 1125.82568652472 
449	 1138.31919598103 
450	 1150.88742334187 
451	 1165.21346504019 
452	 1178.60320920347 
453	 1191.58278001189 
454	 1204.58024995397 
455	 1218.09653641528 
456	 1232.21461731595 
457	 1246.53551635313 
458	 1260.8895882196 
459	 1276.82623355516 
460	 1293.7514965017 
461	 1310.91297513583 
462	 1327.23829979592 
463	 1344.50634881797 
464	 1362.82835693917 
465	 1381.46160045089 
466	 1400.5631611108 
467	 1420.74128340973 
468	 1442.25232353224 
469	 1463.47492933304 
470	 1485.76668301528 
471	 1509.65829495913 
472	 1534.41274617008 
473	 1559.39431823698 
474	 1585.39294129077 
475	 1613.80531247183 
476	 1643.33618575389 
477	 1672.58258468925 
478	 1701.16028392254 
479	 1732.14194264354 
480	 1764.92744767555 
481	 1798.89298018837 
482	 1833.48984841578 
483	 1867.93020901916 
484	 1902.96949585703 
485	 1939.99208449388 
486	 1977.84090216449 
487	 2017.5821661686 
488	 2059.73377032239 
489	 2101.77393887854 
490	 2145.54325296502 
491	 2191.73043003939 
492	 2239.68664748869 
493	 2287.47504807285 
494	 2335.42987080705 
495	 2385.06311582768 
496	 2438.53398977554 
497	 2491.79370066853 
498	 2542.4920956357 
499	 2597.04384865474 
500	 2653.10322837311 
501	 2709.70565838694 
502	 2767.73195461434 
503	 2825.47300614526 
504	 2884.00696880898 
505	 2945.23704529514 
506	 3005.68818906811 
507	 3066.16620289607 
508	 3127.90472212447 
509	 3190.90647532901 
510	 3256.71548144522 
511	 3324.83053094451 
512	 3391.83251194072 
513	 3461.05498040744 
514	 3532.30923110109 
515	 3604.0530742999 
516	 3677.42906430585 
517	 3750.78676963919 
518	 3822.99590623409 
519	 3895.89682907874 
520	 3971.61008174613 
521	 4049.62717726944 
522	 4125.44100690367 
523	 4203.36582170535 
524	 4282.45698560661 
525	 4359.67980332957 
526	 4438.11207356136 
527	 4518.69490084214 
528	 4600.59119579599 
529	 4677.25588004298 
530	 4755.88169821893 
531	 4838.34329474211 
532	 4917.68928354982 
533	 4995.8101287215 
534	 5073.68044830336 
535	 5152.12553251426 
536	 5229.79875671544 
537	 5305.57729725982 
538	 5379.16874661654 
539	 5453.39583270616 
540	 5528.17571547371 
541	 5602.58471231853 
542	 5674.20470985506 
543	 5745.34265471739 
544	 5815.68134533172 
545	 5883.53132634087 
546	 5953.13324025701 
547	 6023.2446820047 
548	 6091.56009908316 
549	 6158.14392910824 
550	 6222.9813696686 
551	 6286.37053520889 
552	 6349.37930487337 
553	 6410.31389611122 
554	 6469.75661961188 
555	 6529.97621036874 
556	 6587.14020555264 
557	 6641.47461949797 
558	 6693.94475677375 
559	 6742.01711242267 
560	 6788.10693868504 
561	 6833.37770116438 
562	 6875.85261504053 
563	 6909.1525985816 
564	 6934.05482964014 
565	 6958.36622055214 
566	 6975.528097441 
567	 6984.6821651314 
568	 6987.09340824201 
569	 6985.99469781845 
570	 6977.71895828108 
571	 6962.09829677089 
572	 6952.79743162932 
573	 6937.59688704724 
574	 6913.81022074096 
575	 6889.97539779198 
576	 6860.69909453028 
577	 6824.9046883738 
578	 6783.2743936619 
579	 6737.90891567004 
580	 6689.85137931638 
581	 6640.78113090915 
582	 6594.51081571341 
583	 6556.62938345916 
584	 6525.15900920718 
585	 6486.07697478848 
586	 6447.03236764874 
587	 6408.23141420789 
588	 6367.19760905753 
589	 6331.53505972367 
590	 6300.66822676816 
591	 6274.08846224244 
592	 6261.22123185479 
593	 6253.8261394334 
594	 6246.09444058428 
595	 6236.25717403253 
596	 6237.06105602318 
597	 6253.5521989263 
598	 6285.44270621811 
599	 6316.49989558599 
600	 6345.9930118704 
601	 6378.06654792866 
602	 6416.80178489218 
603	 6454.09737883247 
604	 6486.83980524564 
605	 6526.0142336918 
606	 6565.42287000696 
607	 6610.46368687397 
608	 6677.51280085486 
609	 6752.75741673467 
610	 6835.9883294046 
611	 6929.3512103072 
612	 7019.53944590731 
613	 7106.73162366975 
614	 7191.33585068843 
615	 7267.67959662767 
616	 7341.69522253684 
617	 7414.82086411733 
618	 7482.63896269323 
619	 7554.05870795492 
620	 7629.74900735701 
621	 7706.62925962544 
622	 7782.65137177804 
623	 7860.01119829628 
624	 7940.43345216735 
625	 8021.1313927841 
626	 8099.81088005802 
627	 8175.90459716573 
628	 8251.87236215481 
629	 8323.60700513311 
630	 8390.08529989803 
631	 8452.11878519146 
632	 8514.89027373614 
633	 8573.56882715598 
634	 8623.80711457702 
635	 8675.74816471667 
636	 8726.59053405388 
637	 8774.49833222213 
638	 8820.94511538317 
639	 8867.00462465444 
640	 8912.52437904086 
641	 8956.4384828498 
642	 9009.15016501052 
643	 9064.15592553295 
644	 9112.53438584827 
645	 9165.81251348764 
646	 9220.77038602022 
647	 9275.40178810005 
648	 9335.15868172287 
649	 9391.44999962961 
650	 9445.35088846348 
651	 9507.55818344444 
652	 9570.83408978122 
653	 9636.16203311392 
654	 9706.35009289658 
655	 9775.82946698965 
656	 9844.09097176126 
657	 9912.12723570212 
658	 9982.71719831078 
659	 10056.8739467084 
660	 10133.8860161481 
661	 10210.6795008778 
662	 10289.7378387576 
663	 10369.7606883435 
664	 10448.0369672543 
665	 10526.0752179582 
666	 10605.2280254867 
667	 10687.0935862977 
668	 10774.4694687858 
669	 10864.0337610069 
670	 10953.7566896895 
671	 11043.4533105183 
672	 11135.3546233473 
673	 11229.9410493201 
674	 11326.7951253146 
675	 11427.6374775727 
676	 11528.802672261 
677	 11628.002618105 
678	 11736.233204116 
679	 11842.2714503815 
680	 11942.7884843721 
681	 12052.4062881139 
682	 12160.4845425398 
683	 12267.2568388318 
684	 12379.6884793058 
685	 12492.8060828988 
686	 12605.4612058376 
687	 12717.727657448 
688	 12831.2306912696 
689	 12944.9388161468 
690	 13058.8016590924 
691	 13176.1398493738 
692	 13291.006656904 
693	 13403.2350150522 
694	 13517.4614287708 
695	 13623.6540037522 
696	 13727.7946084588 
697	 13838.3176805859 
698	 13941.8723364369 
699	 14042.9732299789 
700	 14144.1923873658 
701	 14237.3634238437 
702	 14330.6662439032 
703	 14424.1876288377 
704	 14509.9580670946 
705	 14596.7246820793 
706	 14679.7956535054 
707	 14752.0938599685 
708	 14829.4373735646 
709	 14904.5774384621 
710	 14971.4297913239 
711	 15036.0169917342 
712	 15097.4181937397 
713	 15155.9254139104 
714	 15213.1716661004 
715	 15269.5699326797 
716	 15322.9694557062 
717	 15371.1951563843 
718	 15424.2915036612 
719	 15476.4478566618 
720	 15522.4343537362 
721	 15566.5112506253 
722	 15608.3211910947 
723	 15648.51745972 
724	 15689.0059864254 
725	 15730.6501357741 
726	 15774.6769124164 
727	 15821.4051485856 
728	 15860.9093256691 
729	 15899.2791177541 
730	 15941.31692632 
731	 15977.0402464683 
732	 16018.5908821838 
733	 16066.9172273746 
734	 16107.9840233335 
735	 16145.1290670703 
736	 16180.0430410802 
737	 16213.9271656411 
738	 16241.2827714981 
739	 16265.1587932365 
740	 16288.913202257 
741	 16311.5400996929 
742	 16334.7797470054 
743	 16357.4588206032 
744	 16373.9168437238 
745	 16392.7822352189 
746	 16409.6841432975 
747	 16416.1924336948 
748	 16428.6726485421 
749	 16440.0740173148 
750	 16444.0493378136 
751	 16450.4203000888 
752	 16453.0650134076 
753	 16451.0831767966 
754	 16450.5760251184 
755	 16448.6756741739 
756	 16443.2959906385 
757	 16432.167609957 
758	 16412.5641269122 
759	 16381.0634205782 
760	 16342.5233304916 
761	 16328.1760524027 
762	 16317.9744524791 
763	 16304.2414355287 
764	 16293.8532588554 
765	 16281.2512383624 
766	 16265.0765943782 
767	 16244.9602333322 
768	 16214.7678961982 
769	 16182.2752802025 
770	 16152.9056251133 
771	 16119.9369553887 
772	 16086.5204680839 
773	 16052.9490978072 
774	 16016.6128902035 
775	 15980.1855601199 
776	 15943.5324689513 
777	 15905.448724162 
778	 15864.8027621002 
779	 15819.5405105952 
780	 15769.8764400755 
781	 15721.6508834255 
782	 15672.2771239283 
783	 15620.2517400244 
784	 15564.7268034736 
785	 15509.6366980403 
786	 15454.6335318897 
787	 15398.4590476314 
788	 15342.9843025464 
789	 15284.3511260152 
790	 15222.9911724039 
791	 15170.4515943665 
792	 15110.1436017103 
793	 15041.7714886941 
794	 14975.0008003085 
795	 14905.3910769708 
796	 14834.704640244 
797	 14765.7518582295 
798	 14701.0287799922 
799	 14634.7214639361 
800	 14564.6556831359 
801	 14494.3128275689 
802	 14425.7243145886 
803	 14359.1667702918 
804	 14293.5144073182 
805	 14225.1080600361 
806	 14154.2834552946 
807	 14081.5578922895 
808	 14004.5840227443 
809	 13931.2279637397 
810	 13860.844734599 
811	 13783.2335144062 
812	 13711.5822146642 
813	 13641.0594698611 
814	 13563.3037532792 
815	 13490.391919712 
816	 13416.4288656542 
817	 13338.8732230056 
818	 13267.0368027244 
819	 13192.7007772556 
820	 13114.7454185005 
821	 13036.4113406894 
822	 12952.1934742265 
823	 12867.1243888835 
824	 12787.1865933824 
825	 12711.9860867587 
826	 12637.6763840508 
827	 12563.3480452901 
828	 12493.013638433 
829	 12418.1804605472 
830	 12335.4485108304 
831	 12244.1963585711 
832	 12147.8044096611 
833	 12050.0709387375 
834	 11955.1703009009 
835	 11868.0821246589 
836	 11790.2088661978 
837	 11720.8746018228 
838	 11657.5574799523 
839	 11605.2964460804 
840	 11557.2534933797 
841	 11504.6408703099 
842	 11445.5912248274 
843	 11379.0613200085 
844	 11306.3607149203 
845	 11231.7452243091 
846	 11159.4123942192 
847	 11087.410755028 
848	 11011.659693962 
849	 10938.6558836 
850	 10865.3081793717 
851	 10789.9824520131 
852	 10717.9342403776 
853	 10646.2310137654 
854	 10575.3241017072 
855	 10507.8362712501 
856	 10437.2947236234 
857	 10366.3946445978 
858	 10297.6905898796 
859	 10223.8927283929 
860	 10149.1375369563 
861	 10076.6886844302 
862	 10008.5538941955 
863	 9940.94325123562 
864	 9872.81032523588 
865	 9803.93694430817 
866	 9732.57105651002 
867	 9662.83166195414 
868	 9596.15791829414 
869	 9527.54260083214 
870	 9460.9353770011 
871	 9395.19902183123 
872	 9327.01995189621 
873	 9260.01937528386 
874	 9193.02524420218 
875	 9124.50743410858 
876	 9053.70654198175 
877	 8983.92898537107 
878	 8915.79726445008 
879	 8847.72827220074 
880	 8778.93773708804 
881	 8712.9772149209 
882	 8651.69115127326 
883	 8585.67077005571 
884	 8522.99210586822 
885	 8463.14306281425 
886	 8394.99694716146 
887	 8328.0330277935 
888	 8262.92702859368 
889	 8198.08472384467 
890	 8134.85078662005 
891	 8070.59793251701 
892	 8004.71845374911 
893	 7940.22406301131 
894	 7873.89406907768 
895	 7806.98201099091 
896	 7742.04593179772 
897	 7677.2422136371 
898	 7612.54329455844 
899	 7548.0395030182 
900	 7483.60597657004 
901	 7420.09816616791 
902	 7357.48331410728 
903	 7295.22531799801 
904	 7232.66604370962 
905	 7170.76517160874 
906	 7109.83065740619 
907	 7048.3175974135 
908	 6984.93529035097 
909	 6921.06342631195 
910	 6859.36319894589 
911	 6795.03341659536 
912	 6731.22494747934 
913	 6670.6760120141 
914	 6612.03090798079 
915	 6552.12498883269 
916	 6490.00846936647 
917	 6426.66671404274 
918	 6367.40065928493 
919	 6307.5525673767 
920	 6244.11277138745 
921	 6184.68265501267 
922	 6124.04860723797 
923	 6061.96385903249 
924	 6001.75206237475 
925	 5943.06186250744 
926	 5885.99689869471 
927	 5829.4751449907 
928	 5768.85265216408 
929	 5707.50456768445 
930	 5645.19358037487 
931	 5579.36753102396 
932	 5516.30248957044 
933	 5453.84214261923 
934	 5390.11827586695 
935	 5329.07395802832 
936	 5270.19152404806 
937	 5213.11930927973 
938	 5157.36956028162 
939	 5099.88605950591 
940	 5041.81689184163 
941	 4984.45314093841 
942	 4927.05101389455 
943	 4870.14590299085 
944	 4813.44029561381 
945	 4756.27184256448 
946	 4700.52572679668 
947	 4646.1084222812 
948	 4592.51849803289 
949	 4539.19292755755 
950	 4485.95915435918 
951	 4433.04594565016 
952	 4380.87707370518 
953	 4328.93952022296 
954	 4278.21701795243 
955	 4228.71763778539 
956	 4178.27537613332 
957	 4125.65676656022 
958	 4071.77553219304 
959	 4018.54548599554 
960	 3966.07942189738 
961	 3914.25827479724 
962	 3862.86631487149 
963	 3811.65623474356 
964	 3760.25509457009 
965	 3708.73622168435 
966	 6225.8770060348 
967	 6297.0311155745 
968	 6375.31946478985 
969	 6457.86304671196 
970	 6545.43709048485 
971	 6640.5277409991 
972	 6745.44769650931 
973	 6848.65875778498 
974	 6959.81297289806 
975	 7068.72780959131 
976	 7179.05830424459 
977	 7284.28834093593 
978	 7390.56209032085 
979	 7497.5452215258 
980	 7596.25907843958 
981	 7688.62334708689 
982	 7774.04612713774 
983	 7858.49393695475 
984	 7941.36704181145 
985	 8020.82499062731 
986	 8094.86404331617 
987	 8165.41502431209 
988	 8232.98763814828 
989	 8291.23325922184 
990	 8354.19792257004 
991	 8417.92864329297 
992	 8481.49993479189 
993	 8545.39479451926 
994	 8609.53094817593 
995	 8672.73243767473 
996	 8734.02109232896 
997	 8793.14259520046 
998	 8854.59841691557 
999	 8918.22248961995 
1000	 8979.86153579784 
1001	 9039.1769824619 
1002	 9096.23760431961 
1003	 9155.08803008989 
1004	 9215.31017594786 
1005	 9276.9095762458 
1006	 9345.47606348667 
1007	 9408.7431954283 
1008	 9469.85460687074 
1009	 9529.5032042783 
1010	 9590.30055826242 
1011	 9645.94657576423 
1012	 9701.41408852791 
1013	 9757.84149882389 
1014	 9811.01151002297 
1015	 9864.72842435613 
1016	 9917.38781123883 
1017	 9968.28111209234 
1018	 10021.9991620484 
1019	 10074.976777631 
1020	 10125.6924615605 
1021	 10177.6902972966 
1022	 10230.2197875975 
1023	 10281.7891665142 
1024	 10332.2624968242 
1025	 10384.717479384 
1026	 10438.7659787511 
1027	 10491.3130797559 
1028	 10546.5683232308 
1029	 10603.9908179279 
1030	 10656.2529220486 
1031	 10708.3180650285 
1032	 10760.4846645254 
1033	 10814.2978326084 
1034	 10875.2930143316 
1035	 10933.5819377104 
1036	 10991.120831657 
1037	 11051.4626253039 
1038	 11105.5019215508 
1039	 11159.2319408968 
1040	 11213.2485105697 
1041	 11265.7424500348 
1042	 11316.5657288773 
1043	 11366.2348142325 
1044	 11418.5079600708 
1045	 11469.9796169104 
1046	 11518.2552192364 
1047	 11567.4353053721 
1048	 11618.9614732006 
1049	 11664.9149515436 
1050	 11707.8355411866 
1051	 11750.8893950077 
1052	 11788.9409957993 
1053	 11825.9916725901 
1054	 11867.5035209332 
1055	 11911.5178196283 
1056	 11954.5981117329 
1057	 11995.143987547 
1058	 12035.8976874401 
1059	 12073.6577776295 
1060	 12105.671395381 
1061	 12141.2305050538 
1062	 12176.2525533029 
1063	 12213.8085873652 
1064	 12253.4059995808 
1065	 12293.2130941048 
1066	 12336.1205816271 
1067	 12379.5998473666 
1068	 12420.6730921068 
1069	 12464.8449738695 
1070	 12512.2835261924 
1071	 12557.5960441336 
1072	 12604.5386886613 
1073	 12654.684006424 
1074	 12702.5976548679 
1075	 12745.542392412 
1076	 12797.2874768314 
1077	 12855.2439292921 
1078	 12908.5798037677 
1079	 12963.1573507464 
1080	 13019.1890374115 
1081	 13067.9157274513 
1082	 13127.4204917024 
1083	 13196.0713317312 
1084	 13265.9700145442 
1085	 13332.3285308615 
1086	 13399.8775215209 
1087	 13463.8456953602 
1088	 13527.7843637018 
1089	 13600.0615928201 
1090	 13680.2593730522 
1091	 13761.9457162992 
1092	 13849.0596908093 
1093	 13937.0039767246 
1094	 14025.9780532633 
1095	 14119.8254866429 
1096	 14214.7757292331 
1097	 14318.0450442943 
1098	 14427.641151263 
1099	 14541.8839773947 
1100	 14663.1769610256 
1101	 14786.5137900555 
1102	 14912.4604573253 
1103	 15044.3464702942 
1104	 15181.2493111458 
1105	 15322.3134571804 
1106	 15466.6304782726 
1107	 15614.2330349887 
1108	 15761.0985905225 
1109	 15912.9831644395 
1110	 16070.0513510593 
1111	 16231.5132836378 
1112	 16396.6356760218 
1113	 16567.8912440283 
1114	 16739.8579106467 
1115	 16913.7331359787 
1116	 17092.7447656566 
1117	 17274.3032459864 
1118	 17460.487132678 
1119	 17651.9832922053 
1120	 17846.4280300622 
1121	 18043.4658565562 
1122	 18245.7755688842 
1123	 18451.7781039265 
1124	 18662.9571291563 
1125	 18881.7053741695 
1126	 19101.7604549697 
1127	 19320.739009486 
1128	 19543.8819852063 
1129	 19762.9079218767 
1130	 19978.5841630242 
1131	 20197.6915247523 
1132	 20418.7261251079 
1133	 20637.4551618332 
1134	 20857.3916393105 
1135	 21074.1642543605 
1136	 21290.8359903948 
1137	 21501.9511629488 
1138	 21710.4969408108 
1139	 21915.3554539481 
1140	 22114.5255690518 
1141	 22312.8039661145 
1142	 22506.9230312885 
1143	 22702.1742480817 
1144	 22899.0031184725 
1145	 23090.5055119227 
1146	 23281.1732044842 
1147	 23467.9287946363 
1148	 23650.7214045108 
1149	 23827.6405172632 
1150	 24003.9512287717 
1151	 24178.6463894704 
1152	 24349.3102450806 
1153	 24516.7229973643 
1154	 24681.1775257307 
1155	 24843.4759719566 
1156	 25000.4052495736 
1157	 25155.1983495707 
1158	 25302.308791751 
1159	 25442.1652718486 
1160	 25580.0525311001 
1161	 25714.2809638451 
1162	 25842.2348634501 
1163	 25968.6506456119 
1164	 26085.8345895528 
1165	 26193.1818050462 
1166	 26297.1911896728 
1167	 26395.3186584472 
1168	 26487.3829889449 
1169	 26576.8797919286 
1170	 26666.3211965923 
1171	 26752.556894745 
1172	 26837.3479764898 
1173	 26916.9550158418 
1174	 26994.9475358342 
1175	 27065.3343260009 
1176	 27128.3829544154 
1177	 27191.2421886857 
1178	 27249.8067637864 
1179	 27305.8973128188 
1180	 27360.0723610426 
1181	 27411.8803532221 
1182	 27457.8088194624 
1183	 27505.5152168039 
1184	 27554.3049410287 
1185	 27599.7263643174 
1186	 27644.9648591546 
1187	 27686.3630348416 
1188	 27721.0834439301 
1189	 27758.8090872169 
1190	 27796.4125752445 
1191	 27832.9556415213 
1192	 27871.9611324464 
1193	 27908.0557198339 
1194	 27939.4502842893 
1195	 27971.7534695807 
1196	 28003.0032880159 
1197	 28033.9598709771 
1198	 28060.892046354 
1199	 28086.2072778163 
1200	 28110.2001228728 
1201	 28131.7277830246 
1202	 28150.7388013879 
1203	 28171.1364955208 
1204	 28183.8410670187 
1205	 28188.4562734481 
1206	 28194.5098611805 
1207	 28195.2324359709 
1208	 28199.2164563235 
1209	 28206.5567362874 
1210	 28210.6444954772 
1211	 28215.1787333545 
1212	 28216.0517220995 
1213	 28214.3016086781 
1214	 28208.7519625679 
1215	 28205.798054594 
1216	 28204.1863427787 
1217	 28199.0232275409 
1218	 28193.5603707296 
1219	 28188.7121297671 
1220	 28183.7616875143 
1221	 28181.8194402538 
1222	 28185.7277283253 
1223	 28184.521556639 
1224	 28180.8835780887 
1225	 28178.9037009579 
1226	 28176.5801065693 
1227	 28174.3240339864 
1228	 28173.2291242703 
1229	 28171.8702839468 
1230	 28169.0247980863 
1231	 28167.0948313199 
1232	 28164.2179005459 
1233	 28165.0115389508 
1234	 28168.0936153667 
1235	 28171.2517348493 
1236	 28175.4202076596 
1237	 28184.0143691462 
1238	 28189.0624146529 
1239	 28195.6327760031 
1240	 28207.2571330918 
1241	 28213.6464339633 
1242	 28223.9984251378 
1243	 28235.3287141002 
1244	 28243.0924943898 
1245	 28258.7141816144 
1246	 28274.9554907548 
1247	 28292.7104707969 
1248	 28315.7523713944 
1249	 28337.0761065454 
1250	 28358.5697298627 
1251	 28379.5146323733 
1252	 28403.4030355124 
1253	 28426.612724223 
1254	 28454.0453476313 
1255	 28486.5207990546 
1256	 28518.391081683 
1257	 28553.7521802879 
1258	 28584.566850698 
1259	 28613.6417844213 
1260	 28643.3875466692 
1261	 28670.8019164327 
1262	 28699.2472144133 
1263	 28731.2942880685 
1264	 28758.0923980313 
1265	 28781.7347123966 
1266	 28806.384196005 
1267	 28822.4567756003 
1268	 28833.4380280776 
1269	 28839.8284102066 
1270	 28838.7999436262 
1271	 28840.6000062519 
1272	 28839.2902750711 
1273	 28830.3634549206 
1274	 28816.4523792562 
1275	 28793.909392438 
1276	 28763.7116927599 
1277	 28726.9193312388 
1278	 28687.8463326197 
1279	 28642.1184145536 
1280	 28585.1932836917 
1281	 28533.0039600322 
1282	 28480.3039952356 
1283	 28423.8833495483 
1284	 28365.9689365964 
1285	 28308.8966016084 
1286	 28247.3531352293 
1287	 28188.3856787334 
1288	 28130.8824319967 
1289	 28074.9371868485 
1290	 28019.634207793 
1291	 27965.2623830948 
1292	 27915.9861531249 
1293	 27870.804780222 
1294	 27827.8755241654 
1295	 27787.5075889009 
1296	 27751.3155060251 
1297	 27725.340445877 
1298	 27706.2009426459 
1299	 27691.2288929037 
1300	 27680.4795702101 
1301	 27672.2149484357 
1302	 27668.4370713691 
1303	 27672.7475829979 
1304	 27684.5710015638 
1305	 27698.4663591975 
1306	 27714.5087527511 
1307	 27732.176933559 
1308	 27753.5937911872 
1309	 27776.3961880314 
1310	 27799.0564156998 
1311	 27825.0472403969 
1312	 27851.4518712917 
1313	 27878.046199926 
1314	 27905.7512842059 
1315	 27932.969027856 
1316	 27964.5164092503 
1317	 27996.0725289567 
1318	 28034.0236059624 
1319	 28077.1303157931 
1320	 28124.3576352387 
1321	 28174.3698870494 
1322	 28228.0165012717 
1323	 28286.6472488984 
1324	 28351.4966706505 
1325	 28421.4353096935 
1326	 28495.1612819948 
1327	 28573.4914617937 
1328	 28655.4428620617 
1329	 28742.9973450861 
1330	 28836.7190095573 
1331	 28934.1330171621 
1332	 29039.0924952479 
1333	 29150.5362130671 
1334	 29264.9229972362 
1335	 29382.6208290184 
1336	 29502.4192426951 
1337	 29626.6668801388 
1338	 29756.5619039753 
1339	 29886.0605192568 
1340	 30012.0151491079 
1341	 30140.4256711216 
1342	 30264.4905058466 
1343	 30384.201058971 
1344	 30502.7002991477 
1345	 30608.9235731844 
1346	 30706.1040292269 
1347	 30795.580945522 
1348	 30876.2687186821 
1349	 30949.885877167 
1350	 31016.9173724206 
1351	 31072.5491380833 
1352	 31116.7674101337 
1353	 31158.7280019869 
1354	 31190.6956162482 
1355	 31221.4195590352 
1356	 31257.624122311 
1357	 31296.2424124919 
1358	 31342.0839138329 
1359	 31403.2703432712 
1360	 31472.9006754544 
1361	 31556.6128758214 
1362	 31662.1982738787 
1363	 31784.7422859118 
1364	 31933.7119277796 
1365	 32098.332152564 
1366	 32277.5917058009 
1367	 32470.696715494 
1368	 32666.4768418668 
1369	 32858.4824795355 
1370	 33046.6744779008 
1371	 33209.113740753 
1372	 33344.4325350826 
1373	 33456.8052156044 
1374	 33525.4356371272 
1375	 33563.6202910127 
1376	 33567.4427215579 
1377	 33543.39358346 
1378	 33493.3207243602 
1379	 33426.2781059284 
1380	 33352.2153606673 
1381	 33276.1085843998 
1382	 33212.3567574261 
1383	 33156.4444931359 
1384	 33114.6949499021 
1385	 33086.24050744 
1386	 33072.7675185067 
1387	 33072.5175229104 
1388	 33084.2359776174 
1389	 33105.0120277816 
1390	 33135.9686814929 
1391	 33174.9951565539 
1392	 33231.0491564442 
1393	 33297.8171132899 
1394	 33379.2045640685 
1395	 33477.3473214407 
1396	 33582.3368664305 
1397	 33698.7692562163 
1398	 33825.6282367733 
1399	 33956.9136512542 
1400	 34087.3842496232 
1401	 34215.2568227989 
1402	 34335.9971656242 
1403	 34445.5673778851 
1404	 34546.8363132377 
1405	 34630.4936732752 
1406	 34706.3662396443 
1407	 34775.4949493435 
1408	 34835.9545743182 
1409	 34898.1261682568 
1410	 34957.0377673889 
1411	 35013.3317376701 
1412	 35063.8874892317 
1413	 35107.1782073954 
1414	 35149.3629881962 
1415	 35182.3838017528 
1416	 35210.2641328583 
1417	 35237.1379011212 
1418	 35252.1089266599 
1419	 35261.7029223273 
1420	 35270.5858157415 
1421	 35271.6888581034 
1422	 35267.3102611391 
1423	 35259.8238674075 
1424	 35246.0134119567 
1425	 35225.2081471344 
1426	 35200.9040518061 
1427	 35173.1614954625 
1428	 35139.592907502 
1429	 35099.3752932922 
1430	 35056.4155615526 
1431	 35011.0040961353 
1432	 34961.4211830577 
1433	 34913.418580494 
1434	 34864.956103511 
1435	 34815.0080933911 
1436	 34767.0523840506 
1437	 34720.2975320487 
1438	 34674.842397109 
1439	 34630.5688218872 
1440	 34589.2206679298 
1441	 34548.8858841602 
1442	 34510.6283465252 
1443	 34477.7441531734 
1444	 34443.0646551548 
1445	 34407.5648349901 
1446	 34374.3161262602 
1447	 34337.3543580709 
1448	 34295.8253472522 
1449	 34257.5966833035 
1450	 34219.1922338671 
1451	 34179.9344235947 
1452	 34142.3026734029 
1453	 34101.6413548714 
1454	 34056.5237936298 
1455	 34011.2094155646 
1456	 33964.7582623754 
1457	 33918.1749052287 
1458	 33867.9538117418 
1459	 33816.4080251827 
1460	 33761.3581863117 
1461	 33700.2657436541 
1462	 33640.5785320293 
1463	 33580.0091900591 
1464	 33514.0831219915 
1465	 33449.3407813549 
1466	 33388.4848525558 
1467	 33326.6946897121 
1468	 33262.4273878853 
1469	 33200.5803561219 
1470	 33139.7991058557 
1471	 33080.8049919209 
1472	 33029.5795914174 
1473	 32982.9016315289 
1474	 32937.4181426678 
1475	 32887.8942981577 
1476	 32838.3001082846 
1477	 32789.2101259489 
1478	 32740.2755980871 
1479	 32696.1922407461 
1480	 32652.0990949819 
1481	 32609.7661840623 
1482	 32568.7389968387 
1483	 32527.2158914876 
1484	 32485.8886478904 
1485	 32445.2930470563 
1486	 32402.7806070078 
1487	 32359.1634773514 
1488	 32319.7137094615 
1489	 32278.5605805268 
1490	 32238.5577938115 
1491	 32200.9355793472 
1492	 32160.4606609994 
1493	 32120.9766155836 
1494	 32081.0274019103 
1495	 32041.2525775676 
1496	 32001.2483023854 
1497	 31960.6205627838 
1498	 31920.5871321596 
1499	 31876.6613708157 
1500	 31836.0055826724 
1501	 31798.6700122406 
1502	 31757.9522705798 
1503	 31719.5491065265 
1504	 31678.5063765844 
1505	 31634.9188000496 
1506	 31593.5476036228 
1507	 31548.686136448 
1508	 31507.7921145023 
1509	 31467.9617453006 
1510	 31426.8261406432 
1511	 31391.1692778733 
1512	 31353.0445386631 
1513	 31313.6255770419 
1514	 31274.6555993219 
1515	 31233.9961234244 
1516	 31191.7133357839 
1517	 31149.0329013133 
1518	 31107.4144422302 
1519	 31064.625279764 
1520	 31022.0505945386 
1521	 30979.06197456 
1522	 30934.6905414734 
1523	 30891.0783858994 
1524	 30847.781890166 
1525	 30804.8279537626 
1526	 30759.8121293721 
1527	 30712.4029408191 
1528	 30669.531156356 
1529	 30625.9608439461 
1530	 30579.3574622785 
1531	 30534.2101836397 
1532	 30484.2639321698 
1533	 30431.9457193798 
1534	 30385.2572824501 
1535	 30339.5928173298 
1536	 30294.3948964782 
1537	 30249.5287987144 
1538	 30197.803245698 
1539	 30144.7547661844 
1540	 30092.5062878283 
1541	 30038.2330446793 
1542	 29987.0498781085 
1543	 29936.5974678775 
1544	 29884.6528263949 
1545	 29834.2500389019 
1546	 29783.1169958423 
1547	 29733.061463392 
1548	 29684.8744478239 
1549	 29631.714648276 
1550	 29576.7415074091 
1551	 29523.1044978307 
1552	 29464.7920761174 
1553	 29405.2383021295 
1554	 29345.4955538181 
1555	 29283.3138026814 
1556	 29224.6896892722 
1557	 29166.9954410854 
1558	 29108.2984368784 
1559	 29052.4341433979 
1560	 28993.6337229875 
1561	 28932.8853604084 
1562	 28875.0345619589 
1563	 28814.6547881084 
1564	 28754.627250978 
1565	 28696.15332045 
1566	 28635.9881564386 
1567	 28573.1760532228 
1568	 28507.4416368798 
1569	 28443.7301888245 
1570	 28379.4278412503 
1571	 28314.9632063111 
1572	 28250.778281986 
1573	 28183.3207599648 
1574	 28117.2655430939 
1575	 28053.3109817694 
1576	 27989.1616105303 
1577	 27922.9157094684 
1578	 27853.8414439987 
1579	 27782.0933279623 
1580	 27710.1585420469 
1581	 27642.2238667317 
1582	 27573.7469940879 
1583	 27505.6884532084 
1584	 27439.5205239347 
1585	 27369.3880262475 
1586	 27300.2714816391 
1587	 27231.1715040651 
1588	 27156.3419873613 
1589	 27082.5758384428 
1590	 27010.0606338337 
1591	 26936.3904612942 
1592	 26865.6050603898 
1593	 26791.9883976841 
1594	 26716.624655365 
1595	 26642.4137873024 
1596	 26566.9881100303 
1597	 26495.5055242239 
1598	 26423.5627902929 
1599	 26352.1488895335 
1600	 26280.7340964681 
1601	 26203.2319110548 
1602	 26124.6651370831 
1603	 26045.4935722379 
1604	 25967.3712479063 
1605	 25892.967801367 
1606	 25819.7713062174 
1607	 25743.4743005833 
1608	 25666.3845509689 
1609	 25586.1357226014 
1610	 25500.5945296748 
1611	 25417.9427037848 
1612	 25332.4622067359 
1613	 25246.8003067883 
1614	 25165.3539808607 
1615	 25081.547101405 
1616	 24999.9682014105 
1617	 24916.8033789523 
1618	 24831.2520164119 
1619	 24747.6140227024 
1620	 24658.868689011 
1621	 24568.3167146552 
1622	 24479.2079951463 
1623	 24386.4505773422 
1624	 24292.106915385 
1625	 24199.7401105915 
1626	 24105.1723331996 
1627	 24006.7447421067 
1628	 23910.2378442348 
1629	 23813.2094303632 
1630	 23715.0179353737 
1631	 23621.1836996267 
1632	 23528.8849798905 
1633	 23439.0919769025 
1634	 23351.5113682336 
1635	 23264.3971364241 
1636	 23177.4757065346 
1637	 23091.8907971845 
1638	 23009.0211513475 
1639	 22925.1011734424 
1640	 22840.8771154222 
1641	 22758.4119413014 
1642	 22679.3219281636 
1643	 22595.6923660735 
1644	 22512.6449184448 
1645	 22425.0442918083 
1646	 22332.5780580832 
1647	 22237.5890352081 
1648	 22138.9970161541 
1649	 22040.356677332 
1650	 21938.6980420122 
1651	 21837.0899470898 
1652	 21737.2437667419 
1653	 21632.3649550712 
1654	 21527.8242639189 
1655	 21414.3832386011 
1656	 21297.9748974459 
1657	 21170.6325220395 
1658	 21036.1985824186 
1659	 20890.6458504783 
1660	 20732.8993417554 
1661	 20571.5748921677 
1662	 20401.2864353082 
1663	 20226.805090909 
1664	 20045.6519230347 
1665	 19863.535050864 
1666	 19672.7238789279 
1667	 19489.3410839409 
1668	 19303.9955848168 
1669	 19129.1008201523 
1670	 18955.8432103974 
1671	 18798.0153355669 
1672	 18649.7595392923 
1673	 18513.0361369397 
1674	 18389.576441092 
1675	 18272.0720715987 
1676	 18162.7642683212 
1677	 18063.5867786031 
1678	 17973.3106618181 
1679	 17892.2857059407 
1680	 17823.6583659381 
1681	 17755.0011835676 
1682	 17692.419217781 
1683	 17634.7309648796 
1684	 17580.4861549895 
1685	 17534.9696581205 
1686	 17493.2017097915 
1687	 17454.4730890272 
1688	 17417.889662958 
1689	 17384.7237409211 
1690	 17352.7159440785 
1691	 17326.0394035284 
1692	 17295.0394193435 
1693	 17263.5522876478 
1694	 17230.275594261 
1695	 17191.5874791386 
1696	 17156.0637016555 
1697	 17120.5948471056 
1698	 17087.0030845294 
1699	 17055.0742612531 
1700	 17024.4295322402 
1701	 16996.1008681623 
1702	 16967.2324707899 
1703	 16939.2214627876 
1704	 16911.3615124816 
1705	 16884.2319730783 
1706	 16855.7035675606 
1707	 16826.1198098061 
1708	 16798.2538356152 
1709	 16772.0443113613 
1710	 16741.7490458687 
1711	 16709.7794601164 
1712	 16679.7233890619 
1713	 16647.5559678003 
1714	 16615.8398339611 
1715	 16587.6016091902 
1716	 16555.7645372868 
1717	 16519.2388918847 
1718	 16486.9728348093 
1719	 16456.5291074625 
1720	 16425.3206878093 
1721	 16393.8155091885 
1722	 16365.782817728 
1723	 16339.0107904419 
1724	 16312.0057564038 
1725	 16287.9902685738 
1726	 16262.3565110726 
1727	 16234.1579591205 
1728	 16208.1544232635 
1729	 16182.3215712838 
1730	 16156.3647374565 
1731	 16134.144092877 
1732	 16115.5241134289 
1733	 16093.4723331996 
1734	 16068.3937763748 
1735	 16046.7377082309 
1736	 16024.9909374513 
1737	 16004.6250335442 
1738	 15989.6462541217 
1739	 15970.5664184049 
1740	 15945.600332072 
1741	 15927.4283653901 
1742	 15912.8846189033 
1743	 15895.8253062037 
1744	 15882.7156952858 
1745	 15867.1264818749 
1746	 15845.6167414925 
1747	 15829.9691518376 
1748	 15816.7561769298 
1749	 15805.3376844803 
1750	 15798.8003202529 
1751	 15787.7846022149 
1752	 15776.4144669458 
1753	 15764.841883537 
1754	 15750.5557146217 
1755	 15738.2955681802 
1756	 9352.98530179753 
1757	 9474.96886188021 
1758	 9588.52756032985 
1759	 9708.48899450747 
1760	 9839.98429116274 
1761	 9961.44563165857 
1762	 10075.5658833099 
1763	 10196.4780771269 
1764	 10313.0266268885 
1765	 10417.1071412011 
1766	 10542.0904666603 
1767	 10685.1042499786 
1768	 10813.734220689 
1769	 10947.1989370313 
1770	 11080.880111045 
1771	 11195.2765944258 
1772	 11295.8132090672 
1773	 11417.108320534 
1774	 11548.1362033949 
1775	 11675.9780399785 
1776	 11815.4964694337 
1777	 11942.8368511501 
1778	 12062.6599078175 
1779	 12186.800882078 
1780	 12297.9947479678 
1781	 12425.6012919452 
1782	 12578.8303934776 
1783	 12705.2377492377 
1784	 12826.8941859853 
1785	 12945.3304986307 
1786	 13067.1054139032 
1787	 13169.9300490637 
1788	 13291.2520871811 
1789	 13419.3635822439 
1790	 13543.2388304104 
1791	 13668.8307382684 
1792	 13784.4481513059 
1793	 13911.5616867716 
1794	 14037.0898814679 
1795	 14166.7742574747 
1796	 14289.4701675811 
1797	 14415.9292281308 
1798	 14534.246562008 
1799	 14637.2698364962 
1800	 14745.4730013758 
1801	 14864.0674274443 
1802	 14964.4360616792 
1803	 15061.4135384863 
1804	 15164.7864426806 
1805	 15252.0138125263 
1806	 15316.5288488662 
1807	 15393.0977687242 
1808	 15468.1975309043 
1809	 15529.7068274185 
1810	 15595.5156365792 
1811	 15640.0741370584 
1812	 15680.3180810054 
1813	 15704.6099864741 
1814	 15738.3860923498 
1815	 15758.5319433209 
1816	 15794.7123809429 
1817	 15841.8671698494 
1818	 15888.0795318406 
1819	 15942.1865283965 
1820	 16000.0710416839 
1821	 16040.0891021704 
1822	 16073.0384027757 
1823	 16101.96029681 
1824	 16113.7090529203 
1825	 16133.8826439014 
1826	 16163.4185671228 
1827	 16179.4374957564 
1828	 16187.0411006048 
1829	 16193.2985212785 
1830	 16201.3481868762 
1831	 16194.5401537385 
1832	 16209.7793865783 
1833	 16228.7622127078 
1834	 16264.9054447636 
1835	 16325.425566948 
1836	 16374.0161523465 
1837	 16427.6785362848 
1838	 16485.2970592191 
1839	 16545.0392619092 
1840	 16595.4819455575 
1841	 16654.7947914644 
1842	 16722.3941886051 
1843	 16790.9328755439 
1844	 16864.9488044017 
1845	 16931.115604718 
1846	 17011.8063806462 
1847	 17068.5368173746 
1848	 17099.943594576 
1849	 17131.5869717438 
1850	 17183.5154832372 
1851	 17240.1302395822 
1852	 17303.6298448061 
1853	 17404.9214973354 
1854	 17465.3766034653 
1855	 17518.7911258707 
1856	 17550.4912401598 
1857	 17560.0078467453 
1858	 17564.848530918 
1859	 17553.1853267504 
1860	 17523.4536720162 
1861	 17504.6328133448 
1862	 17467.2380378968 
1863	 17436.0094340469 
1864	 17399.7041825082 
1865	 17378.5597562182 
1866	 17339.2782193864 
1867	 17340.1530229608 
1868	 17362.2248702491 
1869	 17401.9282543459 
1870	 17453.7078938749 
1871	 17563.5902039911 
1872	 17689.6851929765 
1873	 17824.4433439091 
1874	 17972.3402960331 
1875	 18115.6923776206 
1876	 18239.6892356905 
1877	 18355.2330470422 
1878	 18443.7395394052 
1879	 18520.0845513196 
1880	 18573.9763021007 
1881	 18597.7796453218 
1882	 18603.8300579987 
1883	 18593.8159789969 
1884	 18560.0885693434 
1885	 18514.4716618976 
1886	 18471.8581382389 
1887	 18436.2058431923 
1888	 18401.9979203606 
1889	 18372.934225067 
1890	 18339.6024808428 
1891	 18293.4146671403 
1892	 18235.4805900546 
1893	 18168.0564146266 
1894	 18095.9701442438 
1895	 18024.926107437 
1896	 17952.8773598947 
1897	 17887.1298933314 
1898	 17812.3345819844 
1899	 17762.7024157069 
1900	 17725.8094939577 
1901	 17699.6111046641 
1902	 17687.5632188227 
1903	 17691.01313905 
1904	 17705.9763589548 
1905	 17722.0795734127 
1906	 17732.6004004645 
1907	 17746.6392902878 
1908	 17758.0964738098 
1909	 17757.6789700395 
1910	 17768.4160946288 
1911	 17794.4112201987 
1912	 17806.9543570183 
1913	 17812.5609923113 
1914	 17825.0791063438 
1915	 17834.5925383024 
1916	 17831.8257015396 
1917	 17843.5545566722 
1918	 17863.1192560151 
1919	 17888.665919566 
1920	 17924.4908849409 
1921	 17958.9531925915 
1922	 18000.1912972384 
1923	 18039.8898601328 
1924	 18077.6796731397 
1925	 18118.453041287 
1926	 18172.443378724 
1927	 18211.9700044624 
1928	 18236.9560172375 
1929	 18253.1786946405 
1930	 18263.5244312123 
1931	 18251.8929188496 
1932	 18253.866399767 
1933	 18257.6353959385 
1934	 18262.5630845867 
1935	 18267.6674920257 
1936	 18272.8651607536 
1937	 18279.7828766234 
1938	 18286.818607083 
1939	 18293.7623641508 
1940	 18300.9222196745 
1941	 18306.7043852591 
1942	 18316.7687783498 
1943	 18316.5276137015 
1944	 18312.4731168064 
1945	 18302.4591330334 
1946	 18283.2903115036 
1947	 18265.6642748308 
1948	 18244.7835129657 
1949	 18223.8010363028 
1950	 18196.5347757699 
1951	 18176.810241577 
1952	 18168.0772867072 
1953	 18145.2027951173 
1954	 18123.2010740466 
1955	 18105.4019031774 
1956	 18078.8340820269 
1957	 18043.1543644317 
1958	 18007.6252155739 
1959	 17969.0762127129 
1960	 17930.9743541621 
1961	 17895.6780520605 
1962	 17848.9127439017 
1963	 17801.233913465 
1964	 17744.7848302888 
1965	 17675.4915726513 
1966	 17598.9150988006 
1967	 17530.7657756625 
1968	 17459.7714088937 
1969	 17394.2776422643 
1970	 17335.9751451574 
1971	 17272.6778038411 
1972	 17211.2263778993 
1973	 17144.9435616977 
1974	 17073.9608587644 
1975	 17004.2328153664 
1976	 16937.3887496397 
1977	 16863.3362893879 
1978	 16787.1753026185 
1979	 16707.2069104032 
1980	 16623.3725630618 
1981	 16530.082862344 
1982	 16441.1400930831 
1983	 16351.0692933931 
1984	 16261.5618853525 
1985	 16171.9921004408 
1986	 16082.404603472 
1987	 15997.2310146743 
1988	 15905.4216872978 
1989	 15805.0452718558 
1990	 15711.1506718924 
1991	 15618.4524150976 
1992	 15521.3762405674 
1993	 15431.7072967925 
1994	 15348.2127358425 
1995	 15259.5974179814 
1996	 15171.2579023509 
1997	 15078.3147010912 
1998	 14981.9158486152 
1999	 14886.6011315691 
2000	 14785.7422032863 
2001	 14690.509065878 
2002	 14604.3638711788 
2003	 14507.4254495172 
2004	 14401.9291178944 
2005	 14303.8894726038 
2006	 14211.023093356 
2007	 14117.896502251 
2008	 14021.0276284416 
2009	 13936.97987468 
2010	 13846.1252259666 
2011	 13744.6048111943 
2012	 13648.5868580812 
2013	 13559.4482177436 
2014	 13464.5759527396 
2015	 13362.9840702952 
2016	 13269.3560444111 
2017	 13180.9646314613 
2018	 13090.1744157399 
2019	 13001.1498442029 
2020	 12909.5076310709 
2021	 12816.7397190334 
2022	 12730.0039195181 
2023	 12644.567495264 
2024	 12567.0918774521 
2025	 12488.5261017787 
2026	 12412.8977529925 
2027	 12333.8261702203 
2028	 12252.7277350234 
2029	 12175.5909548055 
2030	 12100.0946853662 
2031	 12027.3684798581 
2032	 11957.0313065135 
2033	 11890.8925657472 
2034	 11821.68841191 
2035	 11746.5617178133 
2036	 11674.7060797027 
2037	 11602.9110099762 
2038	 11534.8344673942 
2039	 11476.2643489875 
2040	 11427.5562609436 
2041	 11371.3408141259 
2042	 11309.9898577588 
2043	 11240.6347152625 
2044	 11181.8038671228 
2045	 11119.5239201343 
2046	 11067.7619549676 
2047	 11031.7043071445 
2048	 10987.5860027164 
2049	 10944.7105580521 
2050	 10894.6755461748 
2051	 10848.5319939255 
2052	 10803.2988528999 
2053	 10756.2987395279 
2054	 10705.0699465522 
2055	 10646.8894230177 
2056	 10599.8489089188 
2057	 10550.275377894 
2058	 10501.3783258671 
2059	 10456.4727443402 
2060	 10414.4973224054 
2061	 10369.0500201687 
2062	 10325.467211484 
2063	 10281.3514584017 
2064	 10237.7949232891 
2065	 10190.8038138814 
2066	 10140.781802905 
2067	 10100.2762551665 
2068	 10049.4172498244 
2069	 9999.51497295506 
2070	 9952.2867352383 
2071	 9891.0953799023 
2072	 9826.50483483762 
2073	 9763.34116422656 
2074	 9699.70934579147 
2075	 9641.04559519452 
2076	 9592.44980524864 
2077	 9556.35083024207 
2078	 9515.30924755587 
2079	 9487.70749425584 
2080	 9445.27980414119 
2081	 9394.41177820812 
2082	 9343.83827386037 
2083	 9290.83824836115 
2084	 9232.82256165598 
2085	 9180.8332864478 
2086	 9139.65743923669 
2087	 9100.66996508242 
2088	 9058.25689560392 
2089	 9024.3551908905 
2090	 8982.82786513165 
2091	 8929.65325650955 
2092	 8875.83496094846 
2093	 8820.72147399554 
2094	 8770.94712560776 
2095	 8722.4875633567 
2096	 8686.52130735441 
2097	 8636.80351077836 
2098	 8586.11048258026 
2099	 8519.23082432108 
2100	 8445.4944249187 
2101	 8378.97021038713 
2102	 8315.20789873554 
2103	 8257.13894400274 
2104	 8212.38243744616 
2105	 8153.04070293581 
2106	 8089.6286908613 
2107	 8035.56394408485 
2108	 7963.15820663826 
2109	 7896.68542971711 
2110	 7840.66564762082 
2111	 7776.49563452777 
2112	 7721.34183240032 
2113	 7669.38547325043 
2114	 7612.74363660349 
2115	 7555.14291397336 
2116	 7493.37159465101 
2117	 7425.00348949628 
2118	 7360.84962074305 
2119	 7294.53097378825 
2120	 7226.69987915744 
2121	 7174.11871189607 
2122	 7132.36349934957 
2123	 7090.25036656972 
2124	 7047.55032597481 
2125	 7002.75124706921 
2126	 6948.67829563571 
2127	 6890.09824425953 
2128	 6842.7442352554 
2129	 6790.84422993217 
2130	 6739.42286064669 
2131	 6707.12539164916 
2132	 6675.96962953218 
2133	 6642.24570712313 
2134	 6614.37088464925 
2135	 6585.73524119862 
2136	 6549.97175526889 
2137	 6520.85200274684 
2138	 6502.07148268388 
2139	 6479.93121438695 
2140	 6456.40005670825 
2141	 6433.99754611018 
2142	 6416.68183323609 
2143	 6383.57087159122 
2144	 6354.09234511191 
2145	 6339.57822728216 
2146	 6326.3856820606 
2147	 6322.43131433261 
2148	 6329.62939047524 
2149	 6343.24161124431 
2150	 6357.77959346367 
2151	 6375.34655834 
2152	 6396.19677617443 
2153	 6413.53808714787 
2154	 6442.56396243721 
2155	 6486.3650549652 
2156	 6536.50698318203 
2157	 6588.67099563228 
2158	 6635.74265193839 
2159	 6680.60242120796 
2160	 6722.29524293763 
2161	 6766.99173398161 
2162	 6797.49711087225 
2163	 6820.49894734078 
2164	 6837.73057420318 
2165	 6845.01637285985 
2166	 6854.51614538267 
2167	 6882.40055769261 
2168	 6915.58795735821 
2169	 6947.03034542917 
2170	 6979.78825827484 
2171	 7002.68360359492 
2172	 7023.5829404614 
2173	 7049.54995509984 
2174	 7075.72024881966 
2175	 7108.58337796729 
2176	 7130.16598032901 
2177	 7152.79662138497 
2178	 7180.77227617391 
2179	 7200.40475008575 
2180	 7229.57175188475 
2181	 7260.07779901591 
2182	 7292.16632757469 
2183	 7318.6046013815 
2184	 7347.54642371546 
2185	 7363.66358163332 
2186	 7371.69470940125 
2187	 7372.12828172604 
2188	 7364.97372955972 
2189	 7349.62748592854 
2190	 7325.76394590297 
2191	 7291.04018484929 
2192	 7261.19714490136 
2193	 7232.32115116969 
2194	 7212.53578560177 
2195	 7198.45892702474 
2196	 7168.83250159141 
2197	 7150.67899375022 
2198	 7123.41891841531 
2199	 7089.52499220716 
2200	 7077.00027716858 
2201	 7056.14949799899 
2202	 7038.05196099588 
2203	 7040.75716369772 
2204	 7043.26516188344 
2205	 7037.51185256323 
2206	 7032.19595460333 
2207	 7025.08784294824 
2208	 7008.68056958827 
2209	 6992.27646434884 
2210	 6973.79489790295 
2211	 6946.79469159153 
2212	 6933.86719834581 
2213	 6928.41551601662 
2214	 6920.12739615929 
2215	 6928.40787368682 
2216	 6912.50514283435 
2217	 6878.67237609367 
2218	 6846.51581495481 
2219	 6804.45706184046 
2220	 6766.10899322664 
2221	 6727.85111300758 
2222	 6698.45118659922 
2223	 6665.5750610503 
2224	 6617.20705191141 
2225	 6569.60758158854 
2226	 6512.98256953068 
2227	 6452.56136439148 
2228	 6411.07847456636 
2229	 6371.98812589984 
2230	 6333.01222434047 
2231	 6297.91894212817 
2232	 6252.4642914538 
2233	 6202.81252800763 
2234	 6158.87741261827 
2235	 6109.63695324925 
2236	 6065.15274455147 
2237	 6031.60713738381 
2238	 5992.94183116607 
2239	 5952.71090572949 
2240	 5908.6629455761 
2241	 5861.10838636123 
2242	 5822.80849808165 
2243	 5786.58673567229 
2244	 5760.28893842915 
2245	 5725.55722508649 
2246	 5686.36195118433 
2247	 5649.12941519677 
2248	 5607.99048717465 
2249	 5574.94356648145 
2250	 5550.25038487184 
2251	 5524.02850661258 
2252	 5499.24678888663 
2253	 5473.89560893262 
2254	 5446.03269603746 
2255	 5417.92465704064 
2256	 5392.58764326298 
2257	 5366.24908514199 
2258	 5326.77136985852 
2259	 5306.5917629677 
2260	 5273.35240048919 
2261	 5240.57363785055 
2262	 5218.33106083078 
2263	 5189.25666483379 
2264	 5167.91755114762 
2265	 5138.0909297269 
2266	 5116.66314480465 
2267	 5090.74263466934 
2268	 5055.65290819062 
2269	 5029.77310376429 
2270	 4996.69784116808 
2271	 4965.85730962743 
2272	 4934.61275559787 
2273	 4906.24030510815 
2274	 4870.70187586986 
2275	 4823.84743964009 
2276	 4788.762244495 
2277	 4746.70764016378 
2278	 4706.18927823648 
2279	 4672.94630577374 
2280	 4634.47721666928 
2281	 4597.90922030708 
2282	 4560.34504704261 
2283	 4523.2608278883 
2284	 4488.13371958353 
2285	 4451.9076213436 
2286	 4420.52372417228 
2287	 4398.23994909047 
2288	 4371.28951538996 
2289	 4344.9524305041 
2290	 4313.92888455479 
2291	 4279.68170731733 
2292	 4241.60055064451 
2293	 4194.97663567054 
2294	 4157.58590131368 
2295	 4118.26781750714 
2296	 4088.60394543162 
2297	 4073.26383060578 
2298	 4052.67419203115 
2299	 4032.69384317232 
2300	 4012.73268565157 
2301	 3996.17675690152 
2302	 3968.17221869449 
2303	 3935.4041527285 
2304	 3906.33593563466 
2305	 3866.14808052718 
2306	 3834.2893471899 
2307	 3809.37258173046 
2308	 3786.02403773086 
2309	 3765.47805509521 
2310	 3746.74590323368 
2311	 3727.01273036781 
2312	 3703.19953900592 
2313	 3677.13479519927 
2314	 3644.0195817409 
2315	 3617.30362299553 
2316	 3600.17848488624 
2317	 3571.24892990594 
2318	 3551.06348147086 
2319	 3525.37541620666 
2320	 3492.35495190517 
2321	 3468.55752995214 
2322	 3439.42671594943 
2323	 3412.67275649128 
2324	 3384.87742704549 
2325	 3350.13746631732 
2326	 3306.53368429899 
2327	 3263.12932074689 
2328	 3226.3872478002 
2329	 3182.74975368527 
2330	 3152.79102975232 
2331	 3134.47898025865 
2332	 3093.49721530089 
2333	 3060.92898791491 
2334	 3038.58834238558 
2335	 2999.11558751051 
2336	 2971.74073810197 
2337	 2943.45437604749 
2338	 2903.51854603087 
2339	 2874.85105480842 
2340	 2841.67376830311 
2341	 2810.4197003952 
2342	 2781.34553474886 
2343	 2746.37008255273 
2344	 2715.59268581281 
2345	 2683.6855176528 
2346	 2657.5037279501 
2347	 2633.14799654065 
2348	 2606.97424293444 
2349	 2584.86768096666 
2350	 2562.54710028738 
2351	 2543.73242099059 
2352	 2529.43599129166 
2353	 2516.62017609602 
2354	 2502.37407851393 
2355	 2479.92383461473 
2356	 2450.99160290677 
2357	 2420.5984260433 
2358	 2388.01884618036 
2359	 2361.24174829368 
2360	 2346.71424612093 
2361	 2326.00020348704 
2362	 2307.35490369108 
2363	 2293.68138984214 
2364	 2264.72507318435 
2365	 2240.77097958497 
2366	 2215.75941513578 
2367	 2187.44678003219 
2368	 2170.39528800764 
2369	 2149.71126419935 
2370	 2135.93728609253 
2371	 2123.41722621269 
2372	 2097.46488322929 
2373	 2078.82778339179 
2374	 2054.90750105539 
2375	 2017.95134872669 
2376	 1995.51109544682 
2377	 1979.86106025156 
2378	 1966.28470014266 
2379	 1962.19803932544 
2380	 1954.7217367995 
2381	 1941.62293915498 
2382	 1923.09058330377 
2383	 1902.80111206104 
2384	 1881.99669664701 
2385	 1849.88302123455 
2386	 1819.93876393193 
2387	 1793.37201574647 
2388	 1765.73697186497 
2389	 1749.13780301116 
2390	 1727.58180131137 
2391	 1705.28584983136 
2392	 1692.48845632282 
2393	 1680.03399459498 
2394	 1674.33191763785 
2395	 1676.95979453858 
2396	 1674.15248987152 
2397	 1662.12085929059 
2398	 1647.50362641335 
2399	 1616.31187915098 
2400	 1581.44262184904 
2401	 1556.44900500026 
2402	 1534.44497509203 
2403	 1528.55385300644 
2404	 1527.1197890811 
2405	 1521.40338442959 
2406	 1508.59791978797 
2407	 1493.37517298764 
2408	 1472.59571954995 
2409	 1442.5930075371 
2410	 1431.30687526811 
2411	 1419.31151662187 
2412	 1401.10960633502 
2413	 1391.69035559403 
2414	 1377.87487954665 
2415	 1356.91951250118 
2416	 1336.43047687548 
2417	 1320.24493029521 
2418	 1297.42989068948 
2419	 1273.99649231423 
2420	 1256.56056605617 
2421	 1236.9426479105 
2422	 1219.68695157316 
2423	 1211.92206615053 
2424	 1210.63435212405 
2425	 1211.53767568389 
2426	 1213.32512162809 
2427	 1204.38614280439 
2428	 1184.54142783863 
2429	 1168.05496791471 
2430	 1147.01514792475 
2431	 1128.15435307896 
2432	 1120.62920334519 
2433	 1105.41728970948 
2434	 1098.15824045142 
2435	 1102.97100374783 
2436	 1096.01143247647 
2437	 1093.78464302789 
2438	 1089.19730497596 
2439	 1077.11206640622 
2440	 1072.99926878117 
2441	 1064.07817078638 
2442	 1048.71488936825 
2443	 1033.4569952714 
2444	 1013.01148004362 
2445	 987.535870939852 
2446	 971.230496112511 
2447	 948.361355025582 
2448	 931.912799932192 
2449	 928.533242492899 
2450	 921.94025790751 
2451	 925.442232024586 
2452	 916.57139546674 
2453	 904.623293168942 
2454	 902.261205067849 
2455	 893.78259009074 
2456	 884.454824845766 
2457	 885.78573314761 
2458	 872.899823728963 
2459	 855.021186764514 
2460	 851.677742713102 
2461	 826.419641831838 
2462	 812.510838521955 
2463	 806.876552685498 
2464	 787.487177429671 
2465	 785.254676078044 
2466	 775.315523324296 
2467	 754.890668577293 
2468	 753.72435532307 
2469	 752.855808858355 
2470	 754.401325739679 
2471	 764.390309318584 
2472	 767.090559899366 
2473	 759.461861494146 
2474	 758.076920214855 
2475	 755.506891143722 
2476	 747.799524723416 
2477	 737.450161914372 
2478	 714.744929425906 
2479	 694.730962260955 
2480	 678.605112058513 
2481	 669.500497441358 
2482	 669.280568439586 
2483	 668.645224541722 
2484	 663.712934557598 
2485	 659.174049602051 
2486	 652.995219397173 
2487	 631.335738042693 
2488	 618.080495005417 
2489	 602.708860603604 
2490	 585.018499614443 
2491	 581.639648053669 
2492	 562.598038506173 
2493	 541.177142946387 
2494	 522.096521406135 
2495	 498.372943452698 
2496	 485.148238895076 
2497	 476.272169979711 
2498	 464.575749263477 
2499	 457.262236685088 
2500	 456.886623819477 
