Wavelength	1mm_blackPC00000.asd
350	 0.178029448698397 
351	 0.605970262011899 
352	 1.15518780734133 
353	 0.43720517144716 
354	 0.562959197992451 
355	 1.84585785603628 
356	 3.294452546078 
357	 0.681010412825155 
358	-0.568114335413961 
359	 0.468138620925515 
360	 0.976468227883601 
361	 1.91945808277826 
362	 2.27374160906579 
363	 1.29632609767927 
364	 1.03117558280032 
365	 0.819087630211274 
366	 0.746195393024555 
367	 2.02227980594344 
368	 1.74695596030376 
369	 0.537947754099238 
370	 6.31424708069321E-02 
371	 4.45733041694984E-02 
372	 0.760220193111787 
373	 1.73408827534007 
374	 0.791783524805611 
375	 0.214906444207802 
376	 0.22600663017356 
377	 0.10125584855748 
378	 6.49823167134793E-02 
379	-0.224449246585839 
380	-0.728592854094605 
381	 0.020029546685944 
382	 0.164626532851779 
383	-0.016151350172075 
384	 1.5421395135429 
385	 1.09176980626712 
386	 0.295753472843383 
387	 1.20967151620971 
388	 0.685137564364874 
389	-1.07964796317518E-02 
390	 2.87710896109257E-03 
391	 0.889632827123357 
392	 0.829278459688639 
393	 0.818714763847804 
394	 2.53263195950949 
395	 1.75367732961837 
396	 0.857239124831893 
397	 1.34639987442722 
398	 0.252962250221214 
399	-0.608392904371354 
400	-0.418125436523606 
401	 0.894052255833885 
402	 0.569463351292169 
403	 0.302756526964748 
404	 1.90793314913293 
405	 2.62263379843262 
406	 1.71819888331604 
407	-9.58754260750037E-02 
408	-4.5640995233945E-03 
409	 9.45707608405677E-02 
410	 0.492540566370623 
411	 1.9946987408873 
412	 1.77582679684533 
413	 1.04901777484515 
414	 1.09637130258969 
415	 2.10216104540216 
416	 1.16320814922468 
417	-0.941068498406029 
418	-0.134165080637974 
419	 1.07493061962968 
420	 1.16811465547168 
421	-0.403928859368832 
422	-0.157209253942787 
423	 0.479956412412798 
424	 0.578851793328578 
425	 0.635328523060259 
426	 1.44585457850292 
427	 2.23932989311702 
428	 1.41362241787415 
429	-8.47372185979376E-02 
430	-1.13515801139003 
431	-0.923635744323768 
432	 0.270660612423073 
433	 1.54687729054495 
434	 2.09834450040425 
435	 1.11141609890199 
436	 0.165800007531633 
437	 1.22796609360909E-02 
438	 0.807981073243383 
439	 0.347419157028321 
440	 0.185546136286308 
441	 1.19203088424972 
442	 1.25347281653684 
443	-0.14574819640041 
444	-1.76503834021981 
445	-0.641013855451759 
446	-0.477272794055894 
447	-0.617475572465577 
448	 0.295269797065733 
449	-0.502145106356991 
450	-0.922691805014678 
451	 3.69346425346143E-03 
452	 7.12679060983044E-02 
453	 0.427924105117925 
454	 1.07971098865938 
455	 1.33314102633166 
456	 0.917868895224264 
457	 0.1566627051997 
458	-0.458515451197093 
459	-0.593553304919728 
460	-0.181296663427593 
461	 0.553901822787503 
462	 0.896410823177372 
463	 1.17092209417545 
464	 0.967564686813998 
465	-0.360608933747014 
466	-0.771975545917955 
467	-0.149334165436066 
468	 0.878719849595786 
469	 0.533976066451082 
470	-8.96476910724958E-02 
471	-0.439527922474127 
472	-0.893884613911296 
473	-1.22164856734398 
474	-1.08695326890736 
475	-0.14614811442421 
476	 1.19781517342533 
477	 1.82844704498547 
478	 1.02784492592686 
479	-0.358451431135761 
480	-1.26072649044755 
481	-1.16117580383461 
482	-0.110851492733358 
483	 0.216774284516941 
484	 2.68948708260964E-02 
485	 0.26137527807762 
486	-0.578465700039682 
487	-1.07947034000219 
488	-0.429985944451995 
489	-1.6443749881259 
490	-1.41043110011401 
491	 0.302197438551801 
492	-0.976954133501674 
493	-0.530264941561922 
494	 1.00751964470555 
495	 1.00182175482362 
496	 0.562191465435569 
497	-0.674770195928347 
498	-2.45593054188891 
499	-1.76027322131142 
500	-1.25525742520514 
501	-1.33913162665821 
502	 0.677825851977186 
503	 1.34368767870128 
504	 0.39160990777615 
505	-0.998355923349837 
506	-1.21082978817679 
507	-1.04547627469484 
508	-1.07708874609671 
509	 0.674530778034448 
510	 1.49103907047456 
511	 0.489455288001957 
512	-0.972423857546863 
513	-1.21064351762862 
514	-0.568320793401618 
515	-0.344713159075733 
516	 9.71987898873957E-02 
517	-2.28067780613098E-02 
518	-1.0688443255161 
519	-1.37130679049997 
520	-0.405708202748569 
521	 0.759278323445022 
522	-1.71063754450672 
523	-1.43018704279602 
524	 0.431796657805272 
525	-0.521804213371557 
526	-0.333606620837588 
527	 0.119957656363013 
528	-0.33206952198398 
529	-0.692637014613184 
530	-0.21495830995111 
531	 0.927634015218802 
532	 1.08292043853836 
533	 1.08201086922858 
534	 0.802217379374825 
535	-0.262502834167622 
536	-1.88138851073733 
537	-2.07247564633812 
538	 0.289778904928401 
539	 1.25764428860858 
540	 0.94579714207595 
541	-0.102610533530852 
542	-1.14007398969338 
543	-0.655292345934315 
544	 0.675910684797955 
545	 0.7310647533699 
546	 0.924630950905995 
547	 0.951938183334068 
548	 0.362172605377637 
549	-0.12461153903534 
550	-9.83845667642334E-02 
551	 0.441816773349576 
552	 0.687013753012589 
553	 1.5330544492562 
554	 1.8243691388776 
555	-1.13968370164533 
556	-1.17419560553412 
557	 0.243089799876584 
558	 7.58040258914382E-02 
559	 1.12943898859799 
560	 1.63524394934642 
561	 0.597156404604694 
562	-0.27619225317421 
563	-1.04629183217102 
564	-1.14248675295966 
565	 0.652050938095176 
566	 1.41898479278813 
567	 1.18619403236772 
568	 1.0176716248302 
569	 1.30068186836865 
570	 1.15381267830071 
571	 0.219820789357624 
572	 0.115599658829593 
573	 0.722031296702656 
574	 1.5906211688784 
575	 1.79640966732468 
576	 2.18069130848589 
577	 1.91314822996475 
578	-0.110002607576928 
579	 0.482296986803247 
580	 1.39360083019765 
581	 0.530691178346107 
582	 0.950073897606002 
583	 0.835871938445835 
584	-0.116086705854334 
585	 0.272999147236773 
586	 0.889775434389531 
587	 1.25475438215035 
588	 1.16318858566326 
589	 2.08548394609366 
590	 2.80396335175127 
591	 2.03871549611237 
592	 0.843833178491209 
593	 0.584530296752556 
594	 1.45796551666267 
595	 1.43901329691413 
596	 1.47691258043384 
597	 1.76972580667753 
598	 2.12689659754597 
599	 2.9553111595281 
600	 3.17712464067991 
601	 1.94643437124376 
602	 2.33845537691632 
603	 3.34386995341333 
604	 3.80811791851719 
605	 2.96977341545622 
606	 1.89161590433012 
607	 1.16679242575466 
608	 1.0551172085011 
609	 0.994356827153621 
610	 1.44018816324078 
611	 2.80227136985433 
612	 1.9220911063043 
613	 1.35347397457037 
614	 2.76917110914537 
615	 3.02449856662927 
616	 3.30828273071084 
617	 3.87878179199556 
618	 3.89904795091128 
619	 3.21559322364157 
620	 3.14787843492442 
621	 5.27806205948941 
622	 4.65048075654996 
623	 2.71200780704972 
624	 1.8061627535359 
625	 3.22081998681207 
626	 4.48708454966054 
627	 4.51984972482767 
628	 4.35813322269005 
629	 4.80682942209865 
630	 5.72593045504474 
631	 6.30904504950448 
632	 5.08754757996988 
633	 4.49321421823818 
634	 6.44168381719169 
635	 5.33742821684881 
636	 4.80296442393118 
637	 6.21094914716721 
638	 5.16376030768933 
639	 4.76380395076468 
640	 5.50050683470634 
641	 6.14491508092557 
642	 5.39739664683745 
643	 4.7433414666637 
644	 5.85700545086484 
645	 5.38054423002473 
646	 4.62029137385891 
647	 4.88783732857439 
648	 6.73944443738736 
649	 7.39310799373021 
650	 6.70924954992371 
651	 7.17181224357641 
652	 6.27998972012044 
653	 5.35298493631017 
654	 6.58644111443077 
655	 6.90034959696006 
656	 7.3073628083099 
657	 8.56799478213785 
658	 9.04752874812702 
659	 8.24804477864602 
660	 6.82036208987297 
661	 6.93526711004348 
662	 8.41982597348092 
663	 10.0218251393057 
664	 10.0058366895669 
665	 9.79951959089394 
666	 10.5032250209302 
667	 11.9874074918577 
668	 9.1624811119002 
669	 8.13051833900102 
670	 10.476449305988 
671	 10.1190194720616 
672	 9.4203215071526 
673	 9.80922465587093 
674	 12.3703914283058 
675	 12.335504656455 
676	 10.9624144726854 
677	 10.6128376699746 
678	 12.0483439767111 
679	 11.7725903926132 
680	 9.56066837965991 
681	 12.4913160623701 
682	 13.799447281807 
683	 12.7808551207971 
684	 12.5551214688417 
685	 13.3760126546683 
686	 14.6357483719646 
687	 15.3659670655105 
688	 14.6271538479354 
689	 14.2716955148172 
690	 15.2073587855353 
691	 15.8521587207614 
692	 16.0475150642561 
693	 15.9933375746127 
694	 16.2795974075432 
695	 16.1538994517084 
696	 16.649826407214 
697	 18.6718664590799 
698	 17.9083681641391 
699	 17.5019785497612 
700	 19.0536777034212 
701	 17.7509169026618 
702	 18.1154635628641 
703	 20.3956529964289 
704	 20.7044150601964 
705	 19.6858649798666 
706	 19.2136827413792 
707	 21.1394173824726 
708	 21.2879236101548 
709	 20.7828924831806 
710	 20.6802203923437 
711	 19.3744568112346 
712	 20.0962930648721 
713	 22.4605445996104 
714	 21.7975343525848 
715	 21.9675039985468 
716	 22.7638990463919 
717	 22.7094924248901 
718	 23.3346358836564 
719	 23.9911828536437 
720	 24.0343706400078 
721	 23.7561768187639 
722	 23.5999283112029 
723	 23.8601173686835 
724	 24.7342391405794 
725	 25.1395590931688 
726	 25.4176003167899 
727	 26.3834143343165 
728	 26.692744662661 
729	 26.3522830696821 
730	 25.6944488175682 
731	 25.070647196353 
732	 26.2092157725404 
733	 28.6202124361351 
734	 28.7178677283665 
735	 29.0420553935076 
736	 29.4327452011813 
737	 28.7885655816716 
738	 27.8122661680959 
739	 28.1677043818622 
740	 30.2895551688395 
741	 29.8172135511045 
742	 29.8676813989758 
743	 30.9184762510966 
744	 29.5391461288061 
745	 30.8945494565794 
746	 33.1691146602152 
747	 31.959696973906 
748	 31.2973958365432 
749	 31.449291621604 
750	 31.8759666829787 
751	 31.3184724473084 
752	 31.2535027819751 
753	 32.1109699512949 
754	 33.0026402721563 
755	 33.6342696167792 
756	 34.0735819629196 
757	 34.5704798116898 
758	 35.1578849650705 
759	 34.3134764122017 
760	 31.8858568799462 
761	 32.8157819772317 
762	 34.2063332778288 
763	 34.972177105123 
764	 36.2298428424813 
765	 35.3267389118565 
766	 34.3405970221156 
767	 36.5359344864803 
768	 37.3454668630858 
769	 36.9520846695326 
770	 36.3005136728727 
771	 36.5445958000464 
772	 37.2178556794147 
773	 37.7705914664887 
774	 37.4771365703522 
775	 37.9807783505869 
776	 38.6082526186993 
777	 38.1396698567232 
778	 37.6119441961454 
779	 37.6401639634515 
780	 38.2926975152623 
781	 38.4876890176104 
782	 38.3388971604896 
783	 38.1103142133067 
784	 38.2528869040063 
785	 40.2563111793804 
786	 41.1367505305134 
787	 38.1266165689624 
788	 37.5450804609719 
789	 38.5838643618926 
790	 39.8146074144994 
791	 39.5658942329285 
792	 39.4910827195857 
793	 39.7727022167083 
794	 39.7573561290935 
795	 40.0423306395355 
796	 40.1899843935924 
797	 39.9160811203919 
798	 40.7615300754684 
799	 40.8387796821764 
800	 39.792455093856 
801	 39.8722864157471 
802	 39.7539209400247 
803	 39.7262584466893 
804	 40.5445872002788 
805	 40.0042044185116 
806	 39.4762211365846 
807	 39.9509629042005 
808	 39.2110877939598 
809	 38.9595468051228 
810	 39.6873248326978 
811	 40.6178330532273 
812	 40.9828380870089 
813	 40.5785122944823 
814	 39.7727599619924 
815	 41.0316693598238 
816	 42.2908465379801 
817	 41.8994905978352 
818	 39.6288947779568 
819	 39.0346968554889 
820	 39.7651930665352 
821	 38.8840731784628 
822	 40.4197363267815 
823	 41.404893464844 
824	 39.3254057094051 
825	 40.4735021959513 
826	 42.0109367390403 
827	 42.040274662935 
828	 40.1058857028095 
829	 40.2976312753501 
830	 41.1223155982512 
831	 39.2973384040153 
832	 39.1424070402678 
833	 39.6892212271498 
834	 39.9198467098797 
835	 40.7177912243573 
836	 40.3127834143795 
837	 39.3413043138462 
838	 40.3491438008873 
839	 40.3889181142421 
840	 39.9094057398755 
841	 39.8723816729078 
842	 39.3786313399956 
843	 39.1412617025396 
844	 39.4756592904545 
845	 40.0410576673417 
846	 40.7188277931943 
847	 40.8262540673535 
848	 39.7351178887969 
849	 39.6403534601818 
850	 39.3497345101767 
851	 38.172868150024 
852	 37.7164393536419 
853	 38.1434912258344 
854	 39.2788936693645 
855	 40.578032312429 
856	 40.5656175493212 
857	 39.5193756204708 
858	 38.3193161637231 
859	 38.2229891120881 
860	 38.3834538699693 
861	 38.7574904997316 
862	 40.5740351174842 
863	 39.1351213045256 
864	 36.6289874123473 
865	 36.9720633009022 
866	 37.2417688401092 
867	 38.00790116111 
868	 39.0226956298448 
869	 37.4167133129333 
870	 37.4718083030551 
871	 38.6268644975503 
872	 38.0671202058729 
873	 38.4305176293727 
874	 38.391433268424 
875	 37.1796994488584 
876	 37.3475870888841 
877	 37.6331443246848 
878	 37.3960322945917 
879	 36.503579964756 
880	 36.5097281833745 
881	 37.0321102525496 
882	 37.3981160223952 
883	 37.9527496504543 
884	 37.6918341794107 
885	 36.8383727698097 
886	 37.1100343746047 
887	 36.2064768951819 
888	 35.1028294027135 
889	 35.24746423936 
890	 34.6436034989974 
891	 34.5952268369966 
892	 35.1629835329027 
893	 33.9465095822426 
894	 34.6368476919678 
895	 36.2264676536017 
896	 36.0073148590833 
897	 33.546940637546 
898	 32.151554137654 
899	 33.304558095736 
900	 34.348335667761 
901	 34.9923207580608 
902	 34.8294427795251 
903	 33.818662660765 
904	 34.7415027304675 
905	 35.4242095657281 
906	 34.4688322564214 
907	 33.7893492731112 
908	 33.7609317676376 
909	 34.1760763745827 
910	 34.351727180395 
911	 33.5557250067212 
912	 32.4204079262588 
913	 31.6821679259669 
914	 31.6779905777263 
915	 32.2922338429802 
916	 32.944239749713 
917	 32.7219876977162 
918	 31.0368534439003 
919	 30.3273797059377 
920	 31.6914068085924 
921	 30.5039246823908 
922	 31.0671045441655 
923	 32.6052358511122 
924	 30.8654063780979 
925	 29.5021736055785 
926	 28.6148656252251 
927	 28.1344311454776 
928	 29.8457174818018 
929	 30.5436531272129 
930	 30.0267156303437 
931	 30.2746807050343 
932	 29.4526587322666 
933	 28.253899859419 
934	 27.7424768288023 
935	 28.834372720803 
936	 29.3665727418935 
937	 29.0990642930717 
938	 29.1287344103565 
939	 28.3411887139323 
940	 26.9305540012316 
941	 25.7141812750418 
942	 26.7722170507093 
943	 27.1150631585511 
944	 26.6851665278722 
945	 27.1703296999594 
946	 26.6393702528642 
947	 25.8104243335445 
948	 25.4914383603969 
949	 25.8744322091574 
950	 24.8690187309723 
951	 23.5288978802613 
952	 24.2619723430483 
953	 23.7929353561614 
954	 23.5401648940717 
955	 24.2647649053515 
956	 23.9338538953785 
957	 25.0046015448444 
958	 25.9604065769329 
959	 24.1139448300753 
960	 21.7497341607171 
961	 20.7034455506541 
962	 21.4556000999797 
963	 22.510372348474 
964	 23.3117978236229 
965	 23.5373369184035 
966	 36.5996720564484 
967	 35.555266831824 
968	 35.2604357768661 
969	 36.8073730094622 
970	 37.5706218138222 
971	 38.8132759488352 
972	 43.5194515401883 
973	 45.6826887092044 
974	 44.8287221261903 
975	 45.8722885156392 
976	 47.7264891473223 
977	 51.17577475288 
978	 50.8387587807309 
979	 50.7667896403815 
980	 50.8486289414216 
981	 50.6464336095175 
982	 52.2190411744216 
983	 52.623101660801 
984	 52.7194004897396 
985	 52.3755548218841 
986	 52.9154504478939 
987	 53.7554571616172 
988	 55.157031722709 
989	 58.4833013389209 
990	 59.2900305747024 
991	 58.9071410649433 
992	 59.0255124325751 
993	 57.5562220366136 
994	 56.9328616643978 
995	 60.1178933661488 
996	 62.9673847789869 
997	 66.9644182387858 
998	 68.3326908365729 
999	 65.0091985873835 
1000	 62.6359658498355 
1001	 61.0993222093457 
1002	 61.8025665042846 
1003	 65.899210902219 
1004	 66.8001030756948 
1005	 68.5411486129396 
1006	 72.3888736139829 
1007	 73.328829615719 
1008	 71.6125113794273 
1009	 71.8351786875455 
1010	 73.3382062675001 
1011	 72.5969091821524 
1012	 76.6571303740365 
1013	 83.0479810889774 
1014	 86.9185946561554 
1015	 84.403129064933 
1016	 80.9977290649634 
1017	 78.9575187562045 
1018	 74.1253397807729 
1019	 75.2743899469325 
1020	 78.0285240981497 
1021	 79.0928923972254 
1022	 84.346553435543 
1023	 86.09475705456 
1024	 86.1056982280691 
1025	 84.6744980139057 
1026	 85.2617958869356 
1027	 83.0966027089532 
1028	 82.6874143871567 
1029	 84.5725270630081 
1030	 87.1427882923609 
1031	 90.8141362994197 
1032	 90.55146302006 
1033	 92.3711262859003 
1034	 95.2392454193987 
1035	 92.8173538635772 
1036	 96.4432821285871 
1037	 99.1708176595686 
1038	 96.295054717457 
1039	 97.4838093872246 
1040	 98.3198973166552 
1041	 100.150828609099 
1042	 101.01200067812 
1043	 102.921793076394 
1044	 100.73399131267 
1045	 99.2527433840149 
1046	 97.9049433395498 
1047	 98.467503892927 
1048	 101.840378110005 
1049	 105.258197826144 
1050	 105.498286495916 
1051	 103.40511990233 
1052	 101.861260473865 
1053	 98.6999554451466 
1054	 98.3837398042324 
1055	 100.770187631347 
1056	 100.441597282095 
1057	 102.270928135 
1058	 107.311277384606 
1059	 109.593950513964 
1060	 111.210424934605 
1061	 112.662615228166 
1062	 113.497801155023 
1063	 112.737189453339 
1064	 113.724329713065 
1065	 114.823702646641 
1066	 114.900191658436 
1067	 114.525899296996 
1068	 114.246690502396 
1069	 114.469183346359 
1070	 112.914235731408 
1071	 114.314206277997 
1072	 115.846378838673 
1073	 116.794128930372 
1074	 118.218958627522 
1075	 121.363562961789 
1076	 122.814728163211 
1077	 123.702623024294 
1078	 123.829887887992 
1079	 123.149281584284 
1080	 123.335767104566 
1081	 122.006073248391 
1082	 122.175879055751 
1083	 123.157592501175 
1084	 126.264798452296 
1085	 128.514657081661 
1086	 131.303918563446 
1087	 132.341342694825 
1088	 133.042075043212 
1089	 133.731448942557 
1090	 134.271715464972 
1091	 135.837998827345 
1092	 138.350530609557 
1093	 140.868125554193 
1094	 143.655310542351 
1095	 146.293180610023 
1096	 150.547982485476 
1097	 152.780632499592 
1098	 153.959903353351 
1099	 155.280879417935 
1100	 154.26803929056 
1101	 155.414204209116 
1102	 159.263562862517 
1103	 160.190862333675 
1104	 159.540263997441 
1105	 160.434714836659 
1106	 160.42684763316 
1107	 161.403182071458 
1108	 164.312201687108 
1109	 169.182194248907 
1110	 172.504964400115 
1111	 175.448476912842 
1112	 177.377616084042 
1113	 179.292043384032 
1114	 180.20248764157 
1115	 178.034790160524 
1116	 179.647565827367 
1117	 183.289431029192 
1118	 185.686545131421 
1119	 191.736834997579 
1120	 193.068415293439 
1121	 189.004367301607 
1122	 188.398854904378 
1123	 185.350119497016 
1124	 186.003590147072 
1125	 190.563840694994 
1126	 196.036889356418 
1127	 200.215315932113 
1128	 205.339439109913 
1129	 209.358459191653 
1130	 213.176481626898 
1131	 215.287270390485 
1132	 216.291317751904 
1133	 217.949022697479 
1134	 216.78844952747 
1135	 219.533152305407 
1136	 225.054990793637 
1137	 229.793793100033 
1138	 236.401870023337 
1139	 241.634694802819 
1140	 245.70370343178 
1141	 250.787276773619 
1142	 257.234124362371 
1143	 261.670016788361 
1144	 265.394473235169 
1145	 269.13052601298 
1146	 270.850581915024 
1147	 273.4405831656 
1148	 276.447890012552 
1149	 281.280263925058 
1150	 282.699790805157 
1151	 282.276671363367 
1152	 283.482836499982 
1153	 283.184312351603 
1154	 284.437008853405 
1155	 287.911376630544 
1156	 289.865899925608 
1157	 290.029250980574 
1158	 292.828843038225 
1159	 296.888777841619 
1160	 300.852393890545 
1161	 308.089634894963 
1162	 311.573547268942 
1163	 311.957534159578 
1164	 314.119665618599 
1165	 315.470006574806 
1166	 316.816604520892 
1167	 318.612595426605 
1168	 321.762773330764 
1169	 323.064862911017 
1170	 323.292381529737 
1171	 323.8195738266 
1172	 323.752500110291 
1173	 325.378915177835 
1174	 328.237391271607 
1175	 328.702661689326 
1176	 329.376394021623 
1177	 329.347083509695 
1178	 325.578409763181 
1179	 325.964933757897 
1180	 328.979837968271 
1181	 331.527249035832 
1182	 335.279832249151 
1183	 338.83993786796 
1184	 343.505467291817 
1185	 346.531643427364 
1186	 347.852997810071 
1187	 351.087754438708 
1188	 354.765969129247 
1189	 357.753809572041 
1190	 362.518705405048 
1191	 366.221121803378 
1192	 366.906045623861 
1193	 365.78827958306 
1194	 363.073604211984 
1195	 362.510411541031 
1196	 363.24405750176 
1197	 365.196921944523 
1198	 367.299872461334 
1199	 371.040202903209 
1200	 374.045374114378 
1201	 376.879505158189 
1202	 379.717776362689 
1203	 384.506013220947 
1204	 385.713623021457 
1205	 384.121183980199 
1206	 384.339729563526 
1207	 383.686350666885 
1208	 383.067145228263 
1209	 382.286315752727 
1210	 383.079829942681 
1211	 385.312188394225 
1212	 384.471322997444 
1213	 385.414729572598 
1214	 389.786717123149 
1215	 392.118478083119 
1216	 392.151549056406 
1217	 391.747752143359 
1218	 390.825930724282 
1219	 390.574648068742 
1220	 389.360216202302 
1221	 390.534207498726 
1222	 394.817799593919 
1223	 397.144696295662 
1224	 400.389398995641 
1225	 401.495284780133 
1226	 399.499149003992 
1227	 401.164419579618 
1228	 404.164771782128 
1229	 405.123146699652 
1230	 408.093321414778 
1231	 409.119935879272 
1232	 405.803420885561 
1233	 405.65944367964 
1234	 406.420720134863 
1235	 408.221809463725 
1236	 411.19695500518 
1237	 415.80561873684 
1238	 417.450551073238 
1239	 420.017983571177 
1240	 421.543700598086 
1241	 421.534065386207 
1242	 424.910079980985 
1243	 426.793849318381 
1244	 426.854168897161 
1245	 427.898728498583 
1246	 426.725711981068 
1247	 427.063036341162 
1248	 428.554774724806 
1249	 431.20160924446 
1250	 433.799345691309 
1251	 437.754306807769 
1252	 440.440624337037 
1253	 443.334228579712 
1254	 444.467140120155 
1255	 445.062874151652 
1256	 444.882520525891 
1257	 441.725674664201 
1258	 441.367210197416 
1259	 442.147199467188 
1260	 442.190059263611 
1261	 442.990978308996 
1262	 444.135234178269 
1263	 444.451354748158 
1264	 446.629959297237 
1265	 449.936137748041 
1266	 451.752609233484 
1267	 449.642777102705 
1268	 450.139745729866 
1269	 453.585841066081 
1270	 454.211995348212 
1271	 455.89666751202 
1272	 456.938395952626 
1273	 455.948532780053 
1274	 457.04789560648 
1275	 460.223373562184 
1276	 462.55514238857 
1277	 463.840865990632 
1278	 462.781130962933 
1279	 461.60396967439 
1280	 458.84026010709 
1281	 457.757811849983 
1282	 456.724913384118 
1283	 456.951418557943 
1284	 457.488314996619 
1285	 459.358267613151 
1286	 463.189868090658 
1287	 464.97788835496 
1288	 467.006285077609 
1289	 469.826339870671 
1290	 468.251946808825 
1291	 465.380178570984 
1292	 462.528237047599 
1293	 458.89791801497 
1294	 458.766547503029 
1295	 460.411764670301 
1296	 461.646369525693 
1297	 464.899295837199 
1298	 468.409730163652 
1299	 469.399126402636 
1300	 470.237579145908 
1301	 471.482220854643 
1302	 471.637213826567 
1303	 472.042492406106 
1304	 475.168383984768 
1305	 479.515986114289 
1306	 479.978561192523 
1307	 479.038489157168 
1308	 482.129710104582 
1309	 483.916190536086 
1310	 482.810029017481 
1311	 483.875522980971 
1312	 484.638981631994 
1313	 482.152751591766 
1314	 481.899835222923 
1315	 484.566532950702 
1316	 486.498481482712 
1317	 487.317042507317 
1318	 488.629161621662 
1319	 490.751525487202 
1320	 493.025805004532 
1321	 496.581288094004 
1322	 499.738446000358 
1323	 501.278126953079 
1324	 504.935555789829 
1325	 505.017119206379 
1326	 505.329194247157 
1327	 510.586883074557 
1328	 514.421668591958 
1329	 517.153652969064 
1330	 522.157129965245 
1331	 524.882528080661 
1332	 523.496769447678 
1333	 526.234553885162 
1334	 529.191662287784 
1335	 530.505280839059 
1336	 535.513207967862 
1337	 538.375710215523 
1338	 539.767090656677 
1339	 543.124662962992 
1340	 545.233443583102 
1341	 547.970064252278 
1342	 554.022176781032 
1343	 558.834186693458 
1344	 562.412239308343 
1345	 566.539142748379 
1346	 568.496463761399 
1347	 569.712659254931 
1348	 569.82868895743 
1349	 570.195127975445 
1350	 568.405841142321 
1351	 569.96148006412 
1352	 574.139870721539 
1353	 575.737602285131 
1354	 578.734991610432 
1355	 579.26219902802 
1356	 573.786413361961 
1357	 573.501640725016 
1358	 575.85096689853 
1359	 578.491990169966 
1360	 587.185011508589 
1361	 592.560125155915 
1362	 593.673696832014 
1363	 595.937029266465 
1364	 596.505892828032 
1365	 596.542823470258 
1366	 600.322600043927 
1367	 608.124577690641 
1368	 615.930308785366 
1369	 622.463505146536 
1370	 627.514781010571 
1371	 630.254780570421 
1372	 630.162526346729 
1373	 630.435876102934 
1374	 634.447602503112 
1375	 638.453668177406 
1376	 642.672549383774 
1377	 645.498319477699 
1378	 645.841515656671 
1379	 645.310077250419 
1380	 644.4785910408 
1381	 645.88921380094 
1382	 645.964309753376 
1383	 644.639172307682 
1384	 642.88195866042 
1385	 640.809625841645 
1386	 642.072730170094 
1387	 643.89204230565 
1388	 644.041853612645 
1389	 644.930934922673 
1390	 646.151770113029 
1391	 645.760415156782 
1392	 647.893724318336 
1393	 653.315626617812 
1394	 656.032518153636 
1395	 658.041241440594 
1396	 660.934279326142 
1397	 663.827973974131 
1398	 667.544557662373 
1399	 674.600888490478 
1400	 681.222246944268 
1401	 685.377490545752 
1402	 689.735543770573 
1403	 692.507317976191 
1404	 694.014762037845 
1405	 696.007879406554 
1406	 699.130066197745 
1407	 702.540437416185 
1408	 703.809243247943 
1409	 704.856425069939 
1410	 705.302063661084 
1411	 704.78044072774 
1412	 706.742254066244 
1413	 709.082155006249 
1414	 710.780713716423 
1415	 711.927082310083 
1416	 713.464978749577 
1417	 718.543830401706 
1418	 722.666394580209 
1419	 725.978790114064 
1420	 728.222813450734 
1421	 726.902202014415 
1422	 727.05243612295 
1423	 726.172485120775 
1424	 724.923248369345 
1425	 727.976796245813 
1426	 730.158922873586 
1427	 733.534066001134 
1428	 737.618582215508 
1429	 736.057058768033 
1430	 733.763456217461 
1431	 731.813328799025 
1432	 730.679047277747 
1433	 732.347076054108 
1434	 732.059697577313 
1435	 732.065053109806 
1436	 733.68778867376 
1437	 734.221204724245 
1438	 736.966948108707 
1439	 740.604583102817 
1440	 742.43885682196 
1441	 743.324590440426 
1442	 742.4365608518 
1443	 742.947568531811 
1444	 743.667502031133 
1445	 743.907868451228 
1446	 745.329085084443 
1447	 747.25977661548 
1448	 748.34295014368 
1449	 749.618393886301 
1450	 752.154633877065 
1451	 752.972364392702 
1452	 752.670353307672 
1453	 752.684295143302 
1454	 752.782608392772 
1455	 751.414746972309 
1456	 750.767858161542 
1457	 751.681620759351 
1458	 752.094797267212 
1459	 753.995305730938 
1460	 757.537215968215 
1461	 757.310864684513 
1462	 754.352959917166 
1463	 752.664438814335 
1464	 751.219132473051 
1465	 752.124485257892 
1466	 756.302003363654 
1467	 760.448277744109 
1468	 762.778788732837 
1469	 762.799280577865 
1470	 761.630610519075 
1471	 761.018828493563 
1472	 761.410657394499 
1473	 760.868905437883 
1474	 758.372581103688 
1475	 757.751332324356 
1476	 759.787317497547 
1477	 762.202407609739 
1478	 766.415960480826 
1479	 767.668574099592 
1480	 762.489433274779 
1481	 758.567761631093 
1482	 758.816472661905 
1483	 761.274344853592 
1484	 765.49552835315 
1485	 768.576710297371 
1486	 767.883490913811 
1487	 766.971699511547 
1488	 768.252651795253 
1489	 769.105642008714 
1490	 770.895667470258 
1491	 770.718302406045 
1492	 768.376547345003 
1493	 768.657512072945 
1494	 768.311325066823 
1495	 771.097159031008 
1496	 773.347137011457 
1497	 770.179736019219 
1498	 769.529119068355 
1499	 766.866169910298 
1500	 765.067583627055 
1501	 768.72733074342 
1502	 771.070648986833 
1503	 774.195329286416 
1504	 774.639383333244 
1505	 771.258683979047 
1506	 770.114402441209 
1507	 769.795402107389 
1508	 772.470510461076 
1509	 779.123954503876 
1510	 782.809708741002 
1511	 782.71198427381 
1512	 783.049129584622 
1513	 781.636944842307 
1514	 780.999135914542 
1515	 782.411474019204 
1516	 781.4072122549 
1517	 783.19761973913 
1518	 783.566048020602 
1519	 780.417928006301 
1520	 780.226653618727 
1521	 778.501449011428 
1522	 777.413732077901 
1523	 779.236213174856 
1524	 780.461876520551 
1525	 781.363889070236 
1526	 783.655043705025 
1527	 785.208156632871 
1528	 786.25971338642 
1529	 788.219798396493 
1530	 787.998404417537 
1531	 787.874806535862 
1532	 785.974713289846 
1533	 782.137647631496 
1534	 780.135857925545 
1535	 779.492547816253 
1536	 782.018026894027 
1537	 784.438948207717 
1538	 785.008468841854 
1539	 785.248915047797 
1540	 783.8435271879 
1541	 784.638139023454 
1542	 785.959152024271 
1543	 784.928219694973 
1544	 784.523894515416 
1545	 782.466651029285 
1546	 780.482952173216 
1547	 781.559436245151 
1548	 782.084922392288 
1549	 780.708757469931 
1550	 779.22757859358 
1551	 777.403981589988 
1552	 774.705970116278 
1553	 774.49048410541 
1554	 776.032909846466 
1555	 777.480018447097 
1556	 781.523828551665 
1557	 786.818849498826 
1558	 788.524789202639 
1559	 785.688217178657 
1560	 781.141527895178 
1561	 774.884726556428 
1562	 773.129569814146 
1563	 776.569510936525 
1564	 779.561393211041 
1565	 783.800525819595 
1566	 783.206060185662 
1567	 780.869091968447 
1568	 780.172864942133 
1569	 776.441929360017 
1570	 774.164570927135 
1571	 772.796986593958 
1572	 772.454476455664 
1573	 772.884763329061 
1574	 773.327632878675 
1575	 773.515868810359 
1576	 771.547214553235 
1577	 772.02067320676 
1578	 773.476819193483 
1579	 773.772851999398 
1580	 775.834754891814 
1581	 775.356147084396 
1582	 770.185498224253 
1583	 765.398273917335 
1584	 758.741210164949 
1585	 754.187740774092 
1586	 754.956510180725 
1587	 755.407355694077 
1588	 756.935686584588 
1589	 756.947296816106 
1590	 756.089515241959 
1591	 754.90939254077 
1592	 751.32312321117 
1593	 749.10635641895 
1594	 748.829345273319 
1595	 748.43709888416 
1596	 747.787645370475 
1597	 746.472462000993 
1598	 741.306798568031 
1599	 734.61485465872 
1600	 733.550194591794 
1601	 735.945101598466 
1602	 736.129613597249 
1603	 737.634418477405 
1604	 737.490679031809 
1605	 731.548149262369 
1606	 727.98955346871 
1607	 725.521907226491 
1608	 722.365798951501 
1609	 722.562248882734 
1610	 723.494032380609 
1611	 722.227003312292 
1612	 716.911969078689 
1613	 710.334940447291 
1614	 703.942601469606 
1615	 698.992027156173 
1616	 695.585371338059 
1617	 692.468014023192 
1618	 689.694214259909 
1619	 684.842803546919 
1620	 682.753063749318 
1621	 683.167544441954 
1622	 681.46957943274 
1623	 679.260286644586 
1624	 676.762723353581 
1625	 671.621596313073 
1626	 665.454875673152 
1627	 663.856245924061 
1628	 662.311395158207 
1629	 660.15792128728 
1630	 660.485727499825 
1631	 654.495568238996 
1632	 645.378151446944 
1633	 638.059009792364 
1634	 629.000370068683 
1635	 619.76804040122 
1636	 609.912675131047 
1637	 600.471370258941 
1638	 590.517900286164 
1639	 580.607015556262 
1640	 573.319265581835 
1641	 563.12582680064 
1642	 550.77664613866 
1643	 537.657033198205 
1644	 522.389972063052 
1645	 506.952380151326 
1646	 490.571522110206 
1647	 475.250293365887 
1648	 458.530125185997 
1649	 444.826878957019 
1650	 433.762331177744 
1651	 421.171652629981 
1652	 409.497224308096 
1653	 398.067275308515 
1654	 386.241148308376 
1655	 374.447301954854 
1656	 363.676788542867 
1657	 352.024156320718 
1658	 336.928911062476 
1659	 327.634938966229 
1660	 320.381767932145 
1661	 315.255182437297 
1662	 315.439632341087 
1663	 312.849671652392 
1664	 309.668016352043 
1665	 308.708662041581 
1666	 307.294526110918 
1667	 308.781958647448 
1668	 313.14743244691 
1669	 317.08565334889 
1670	 322.368956141908 
1671	 328.138412133859 
1672	 334.822263287663 
1673	 340.811502891803 
1674	 347.672930586633 
1675	 352.477338283371 
1676	 356.181285532566 
1677	 359.690554683102 
1678	 362.875916659119 
1679	 364.284775499078 
1680	 364.061755634893 
1681	 365.536996958228 
1682	 366.073009647458 
1683	 369.0162227235 
1684	 372.032322825788 
1685	 372.700388010664 
1686	 372.651333273335 
1687	 373.231121701618 
1688	 374.626019822577 
1689	 377.789188452548 
1690	 380.472549237778 
1691	 382.853428464043 
1692	 385.647188870748 
1693	 388.915514286749 
1694	 391.831864350632 
1695	 395.601942626408 
1696	 397.995145963951 
1697	 398.225272105812 
1698	 400.409245443617 
1699	 403.560124373871 
1700	 405.542251850838 
1701	 408.902530181923 
1702	 410.400308911404 
1703	 408.58724164401 
1704	 409.31331614363 
1705	 410.757534631952 
1706	 412.377104771585 
1707	 414.310305534698 
1708	 417.984429266099 
1709	 424.036742197326 
1710	 426.888082394125 
1711	 429.789723822239 
1712	 432.021412596511 
1713	 430.773206856061 
1714	 432.421315295427 
1715	 438.062701012743 
1716	 437.417360449627 
1717	 433.041264486079 
1718	 432.373998946615 
1719	 430.913192934428 
1720	 427.796324288559 
1721	 425.498196699415 
1722	 425.447214415744 
1723	 423.594645441277 
1724	 422.295773719135 
1725	 424.646867135651 
1726	 426.812453200173 
1727	 425.702047936544 
1728	 428.110204843752 
1729	 429.533648140728 
1730	 423.258789841341 
1731	 420.907314783101 
1732	 423.248468823773 
1733	 425.234179203489 
1734	 430.730283331928 
1735	 435.066154618356 
1736	 440.844316176896 
1737	 442.135953922819 
1738	 439.743907962943 
1739	 439.325248407465 
1740	 435.319017211534 
1741	 434.635757264659 
1742	 438.31920381384 
1743	 440.257847628393 
1744	 439.667093718779 
1745	 443.953040520509 
1746	 452.84422304375 
1747	 456.723560050258 
1748	 461.340998571202 
1749	 464.788024726968 
1750	 463.641148674241 
1751	 464.963623720122 
1752	 469.190900060284 
1753	 470.392142607858 
1754	 469.793679969937 
1755	 470.389721431032 
1756	 245.022082863762 
1757	 248.992142125344 
1758	 249.044700571127 
1759	 251.342232239797 
1760	 251.715599089212 
1761	 249.635612725641 
1762	 259.095399185176 
1763	 275.205951253461 
1764	 284.201543456445 
1765	 295.291913513553 
1766	 304.230152212778 
1767	 311.128276620461 
1768	 315.524951441878 
1769	 318.28041312755 
1770	 325.419238522496 
1771	 325.839508572199 
1772	 310.207709932219 
1773	 308.215205228855 
1774	 311.511472874117 
1775	 312.448751759862 
1776	 315.449455791523 
1777	 320.980982412786 
1778	 327.792567947064 
1779	 326.829629714619 
1780	 343.552373647458 
1781	 360.988149812418 
1782	 362.707403167201 
1783	 369.823499132116 
1784	 374.756879975255 
1785	 371.598911383336 
1786	 369.586931751052 
1787	 380.527666780075 
1788	 383.369972834374 
1789	 376.54362740267 
1790	 378.901727587573 
1791	 380.765389298338 
1792	 374.835575800354 
1793	 378.326905646555 
1794	 383.808396712441 
1795	 390.425430032608 
1796	 389.657155016784 
1797	 396.731688253024 
1798	 411.909691854021 
1799	 411.884845960013 
1800	 398.944764297901 
1801	 401.612320025319 
1802	 407.170972182738 
1803	 413.515447399843 
1804	 433.419807581732 
1805	 445.236408783634 
1806	 458.056685774044 
1807	 455.59239393349 
1808	 459.801156296467 
1809	 453.106782899219 
1810	 447.017960685659 
1811	 445.951283548348 
1812	 446.022627641528 
1813	 445.420128365363 
1814	 450.799853355789 
1815	 466.659251030983 
1816	 471.673653131426 
1817	 475.063762744248 
1818	 476.965630597015 
1819	 474.61761714137 
1820	 467.127530012048 
1821	 463.953432408818 
1822	 461.075444697864 
1823	 462.266190101469 
1824	 467.167437969891 
1825	 469.471323294559 
1826	 467.466247999542 
1827	 475.022077628014 
1828	 493.14370321399 
1829	 500.359489122476 
1830	 508.582417491616 
1831	 524.050802371567 
1832	 532.819406109122 
1833	 533.92487109586 
1834	 534.181738875594 
1835	 535.207072423134 
1836	 534.66382711638 
1837	 522.695257351936 
1838	 519.364985541003 
1839	 521.806578496467 
1840	 526.471257448563 
1841	 528.157575002115 
1842	 532.340381332239 
1843	 533.530898117812 
1844	 530.573622979626 
1845	 530.509879955398 
1846	 530.401034992268 
1847	 532.199922285541 
1848	 538.38943807134 
1849	 538.811956587212 
1850	 538.574500981298 
1851	 539.401942238801 
1852	 544.17223511704 
1853	 552.962524105945 
1854	 556.044367698788 
1855	 561.214014041607 
1856	 564.164044656806 
1857	 564.808408937265 
1858	 554.752196432964 
1859	 554.381613067353 
1860	 559.07471693529 
1861	 553.863124253606 
1862	 558.816665219453 
1863	 561.4102721675 
1864	 564.029525994709 
1865	 565.964081204929 
1866	 567.178610625626 
1867	 572.121307715873 
1868	 581.149079427401 
1869	 584.51802714943 
1870	 595.825634632885 
1871	 596.425511236991 
1872	 586.122731620443 
1873	 587.243532182616 
1874	 588.782610780679 
1875	 597.742951837938 
1876	 601.286884933807 
1877	 608.405060202095 
1878	 610.928514538974 
1879	 612.040419156837 
1880	 603.330124190998 
1881	 600.763154678497 
1882	 602.075576875175 
1883	 598.909208927585 
1884	 601.242845603841 
1885	 609.569391477974 
1886	 612.043010429759 
1887	 611.809289223434 
1888	 608.934042340093 
1889	 605.043274181826 
1890	 601.395652517883 
1891	 595.178483196839 
1892	 582.794052872652 
1893	 571.787364536731 
1894	 558.743897155756 
1895	 554.511002394866 
1896	 560.745020542877 
1897	 564.666187807442 
1898	 577.274945303819 
1899	 581.551667816925 
1900	 581.537339189625 
1901	 582.283406005429 
1902	 580.383083126755 
1903	 576.581965362322 
1904	 577.051356448674 
1905	 566.936819914572 
1906	 553.645732966367 
1907	 548.655387510382 
1908	 547.892503177323 
1909	 550.226460764936 
1910	 554.98373461722 
1911	 572.206875624688 
1912	 575.343315385417 
1913	 569.525088640293 
1914	 570.130537275218 
1915	 565.79557750298 
1916	 563.274122198496 
1917	 571.904357643637 
1918	 581.606004684806 
1919	 587.640179834381 
1920	 597.74302811288 
1921	 600.231809799479 
1922	 591.821139659657 
1923	 593.268168873548 
1924	 593.762713464885 
1925	 599.231272525712 
1926	 618.626052612764 
1927	 626.895048755609 
1928	 627.79518674839 
1929	 628.459707098147 
1930	 624.842351921369 
1931	 607.235379528469 
1932	 605.578002107351 
1933	 614.4806948582 
1934	 612.942390066805 
1935	 619.838356773798 
1936	 612.848205239405 
1937	 578.965037047774 
1938	 566.565912931449 
1939	 557.693887241249 
1940	 550.126882010363 
1941	 557.581369015021 
1942	 588.585575187435 
1943	 602.001108603457 
1944	 618.081734054244 
1945	 627.600730647267 
1946	 630.933642915545 
1947	 633.298128904988 
1948	 632.292410416913 
1949	 631.423267041535 
1950	 622.67018244463 
1951	 621.894568620846 
1952	 626.859582730158 
1953	 629.642635706745 
1954	 634.943815189691 
1955	 651.176833327766 
1956	 648.761401393281 
1957	 632.505747620978 
1958	 629.571659309118 
1959	 625.782808353728 
1960	 619.318383825987 
1961	 621.056616643897 
1962	 617.382554121509 
1963	 600.361342901479 
1964	 591.530994515453 
1965	 585.894537981751 
1966	 585.496125313412 
1967	 584.361642926673 
1968	 585.139489068427 
1969	 586.159784463386 
1970	 590.551204559716 
1971	 590.999436400473 
1972	 586.256742926377 
1973	 589.67643077292 
1974	 597.491776322062 
1975	 601.947530504616 
1976	 615.514617154601 
1977	 619.378644363159 
1978	 615.703834763518 
1979	 610.44096895969 
1980	 601.151078032165 
1981	 583.668777127942 
1982	 576.193529748564 
1983	 566.204542908063 
1984	 563.462579085689 
1985	 572.424665633629 
1986	 572.247741424913 
1987	 569.796934401135 
1988	 569.607989143394 
1989	 571.124087047198 
1990	 567.988743087025 
1991	 563.357565719364 
1992	 559.907496473949 
1993	 549.631402451173 
1994	 530.02431246242 
1995	 524.154569140825 
1996	 523.557820096733 
1997	 523.386899075204 
1998	 532.141017716618 
1999	 534.687507619207 
2000	 532.236751928991 
2001	 531.445318219077 
2002	 528.746264428574 
2003	 532.052353159175 
2004	 536.722498968041 
2005	 548.820067301365 
2006	 563.292495927789 
2007	 561.330111786757 
2008	 556.452806526525 
2009	 548.871847319995 
2010	 541.229948424273 
2011	 531.551787039867 
2012	 520.8755808597 
2013	 507.163218123465 
2014	 497.636388666185 
2015	 481.524729805026 
2016	 478.208844798692 
2017	 486.518360761881 
2018	 491.486144480047 
2019	 504.581158701569 
2020	 515.429270892933 
2021	 512.402482641077 
2022	 499.947265422202 
2023	 477.407281096477 
2024	 447.199446228552 
2025	 433.229722455409 
2026	 422.835430037184 
2027	 418.006984728615 
2028	 432.048111422541 
2029	 431.355757816244 
2030	 420.654352171312 
2031	 422.888428925303 
2032	 428.003228518954 
2033	 427.832196043388 
2034	 447.359363382645 
2035	 460.828902288918 
2036	 462.559088438249 
2037	 467.232588547426 
2038	 454.924046886043 
2039	 438.661141922257 
2040	 435.292876761018 
2041	 430.110193406029 
2042	 427.823265231399 
2043	 437.084125548711 
2044	 437.726048452199 
2045	 432.568274331521 
2046	 432.647972639224 
2047	 435.834042497252 
2048	 436.237015361934 
2049	 440.796022187092 
2050	 432.096889502587 
2051	 424.607991056913 
2052	 416.120498560744 
2053	 413.075566244575 
2054	 417.553351679208 
2055	 413.899482437501 
2056	 416.409164895745 
2057	 417.106152397556 
2058	 399.74334892504 
2059	 386.703464552062 
2060	 365.733765751208 
2061	 356.796950813499 
2062	 356.981620589324 
2063	 355.595750692498 
2064	 358.833400241881 
2065	 364.333088837877 
2066	 364.343138429245 
2067	 347.4028585202 
2068	 341.735671943242 
2069	 339.694669109937 
2070	 345.485103862577 
2071	 354.479718234483 
2072	 358.61369375064 
2073	 369.707826304058 
2074	 368.865164005895 
2075	 355.097178351738 
2076	 347.409161857928 
2077	 339.788415213536 
2078	 325.732405153213 
2079	 310.632832091843 
2080	 299.888209384612 
2081	 282.770587280284 
2082	 271.746982005856 
2083	 275.237467395525 
2084	 276.437100445005 
2085	 294.866044924995 
2086	 313.529320296425 
2087	 323.439482804321 
2088	 333.422772241928 
2089	 332.592559781105 
2090	 321.574623746085 
2091	 319.963233969316 
2092	 321.320922641803 
2093	 327.966518397407 
2094	 345.350927566303 
2095	 349.465001813576 
2096	 349.903503572729 
2097	 348.510821840095 
2098	 339.390428760363 
2099	 325.750418220008 
2100	 327.126655679593 
2101	 324.967126272401 
2102	 319.744830328882 
2103	 308.409458381462 
2104	 295.17099089275 
2105	 276.373707696867 
2106	 259.711544977302 
2107	 253.977211966656 
2108	 237.966934191709 
2109	 236.9809632366 
2110	 232.002219160553 
2111	 212.825950467276 
2112	 210.152331653541 
2113	 204.98038860308 
2114	 199.724819990248 
2115	 204.048653840295 
2116	 199.925790821723 
2117	 188.830484972955 
2118	 176.844413880626 
2119	 160.762573325491 
2120	 146.056309137278 
2121	 132.901231046489 
2122	 115.411333687305 
2123	 104.981107512387 
2124	 107.867477721072 
2125	 113.644829267462 
2126	 123.932851365648 
2127	 133.471971325044 
2128	 140.827888476245 
2129	 142.329355303273 
2130	 148.375858076781 
2131	 149.896959058937 
2132	 134.622283717862 
2133	 127.085276496162 
2134	 121.44965664615 
2135	 118.896147978475 
2136	 125.303086309419 
2137	 129.661098818569 
2138	 131.493828926036 
2139	 139.712175420829 
2140	 153.252161053555 
2141	 164.032435563609 
2142	 170.30141888735 
2143	 166.475786424725 
2144	 159.656001956195 
2145	 148.208530757005 
2146	 141.935968136098 
2147	 148.714641586882 
2148	 146.192256547961 
2149	 147.704766261485 
2150	 152.183813056225 
2151	 140.435194974389 
2152	 133.86363670362 
2153	 135.980474929613 
2154	 139.826643703861 
2155	 148.873501757249 
2156	 151.692658542956 
2157	 140.657275983696 
2158	 134.66146094017 
2159	 120.470034824477 
2160	 120.418697334195 
2161	 130.085927201274 
2162	 139.778712855114 
2163	 157.242506407364 
2164	 166.439878894563 
2165	 175.243408801683 
2166	 183.387068197057 
2167	 187.770060956853 
2168	 196.115644556742 
2169	 204.323944308695 
2170	 208.919410202284 
2171	 220.503503968597 
2172	 225.872344318486 
2173	 221.454396642098 
2174	 221.759823956661 
2175	 217.623372074791 
2176	 213.322615948649 
2177	 210.020568337197 
2178	 200.727907228931 
2179	 195.386987515229 
2180	 189.961451701899 
2181	 188.764296766126 
2182	 200.542012053584 
2183	 202.696554688703 
2184	 201.660500540931 
2185	 198.129748408366 
2186	 179.562961590962 
2187	 179.716646588277 
2188	 186.787363187486 
2189	 199.490939544215 
2190	 222.687284186686 
2191	 245.002916900827 
2192	 254.540715555205 
2193	 261.936540798451 
2194	 258.421078308674 
2195	 248.818259120407 
2196	 237.884839543181 
2197	 221.764993468178 
2198	 217.384883514949 
2199	 216.095404391003 
2200	 215.398996540724 
2201	 223.565823321787 
2202	 220.215897671133 
2203	 224.853219370315 
2204	 238.981175421968 
2205	 243.433678463769 
2206	 244.940725481472 
2207	 241.30387358408 
2208	 233.24650154698 
2209	 222.437851963083 
2210	 221.351813811569 
2211	 234.858726362503 
2212	 236.862754460753 
2213	 241.389191724122 
2214	 237.181665025763 
2215	 222.393638617231 
2216	 212.089343289416 
2217	 195.519221837613 
2218	 188.222514393673 
2219	 187.00063110082 
2220	 183.515847089657 
2221	 184.584425181815 
2222	 181.400068459935 
2223	 178.094517462607 
2224	 175.227707042528 
2225	 168.92477824564 
2226	 167.782043928514 
2227	 168.972461771095 
2228	 163.465257759758 
2229	 158.650851811035 
2230	 150.884454451315 
2231	 138.678611458549 
2232	 137.359882516135 
2233	 139.358542592237 
2234	 143.633725376208 
2235	 144.368465817754 
2236	 136.227151881208 
2237	 124.101966143052 
2238	 122.285918910369 
2239	 125.976075188787 
2240	 117.976265865616 
2241	 118.537660152798 
2242	 108.993729922079 
2243	 97.0329598487387 
2244	 75.411666294152 
2245	 72.9362683213195 
2246	 78.3811342285893 
2247	 76.6181896403562 
2248	 87.7669869033476 
2249	 82.5304691113691 
2250	 57.4727353920376 
2251	 48.1280346891627 
2252	 41.2260098510609 
2253	 36.8565954503991 
2254	 38.7997532767529 
2255	 40.2294222454243 
2256	 44.8207796043097 
2257	 40.7050007612208 
2258	 42.7496581046483 
2259	 40.632445615666 
2260	 34.8883267309056 
2261	 44.3208418864205 
2262	 51.8551659528627 
2263	 50.1033911364007 
2264	 39.781437086477 
2265	 17.1178522409088 
2266	-4.20573959412267 
2267	-10.0457725916421 
2268	 1.54866337150033 
2269	 14.0146194941024 
2270	 20.9346025285705 
2271	 29.1876784653138 
2272	 40.6253583023462 
2273	 49.6075924494779 
2274	 53.2323162098263 
2275	 57.1239791923494 
2276	 49.5368335972291 
2277	 40.1323083179978 
2278	 46.4380283479415 
2279	 41.4988599820427 
2280	 40.5759955189819 
2281	 48.960215150568 
2282	 45.9501425500353 
2283	 54.1123419974197 
2284	 51.7748728707272 
2285	 41.9082705223275 
2286	 34.85496291704 
2287	 22.1262674603827 
2288	 14.8804793360674 
2289	 7.66198223991607 
2290	 8.17007138146435 
2291	 14.7651974049649 
2292	 20.6029810578334 
2293	 37.2644863423619 
2294	 42.8241569112582 
2295	 45.4789766511878 
2296	 43.8499949874612 
2297	 34.5106566544312 
2298	 27.2649814706853 
2299	 11.8345416866905 
2300	 7.12811090386298 
2301	 6.64997176656711 
2302	 6.83439291775954 
2303	 16.8932066183458 
2304	 19.851328804079 
2305	 16.9092415506149 
2306	 22.7142170432078 
2307	 31.0951754242615 
2308	 37.9085442045606 
2309	 51.2599841219981 
2310	 61.257623183439 
2311	 50.8834958848351 
2312	 39.6112684598705 
2313	 30.994514003059 
2314	 20.5104637632998 
2315	 25.1982945309284 
2316	 35.925032050031 
2317	 40.6534440812573 
2318	 44.978117217798 
2319	 44.5803199733416 
2320	 35.2252793167125 
2321	 36.6853298375195 
2322	 37.1407153073435 
2323	 36.8559182051812 
2324	 46.2467794544095 
2325	 38.0126428404718 
2326	 33.3623626718109 
2327	 30.3743765022923 
2328	 25.5006535459302 
2329	 32.7448162901365 
2330	 28.7180955009224 
2331	 28.1189142525709 
2332	 31.1114408624173 
2333	 29.5652795777432 
2334	 30.815984223588 
2335	 30.9743499516779 
2336	 28.1669149046597 
2337	 23.4152156577747 
2338	 18.8497048425587 
2339	 9.97631445244744 
2340	 14.1738493355446 
2341	 24.9847114665042 
2342	 33.3578716157896 
2343	 49.0995558199335 
2344	 44.9377625341814 
2345	 38.9952780462031 
2346	 45.196070480887 
2347	 43.4641907681924 
2348	 51.1013357935243 
2349	 51.5720866159892 
2350	 37.3163959687105 
2351	 26.9954070193442 
2352	 15.4501832200384 
2353	 8.19840163427286 
2354	 7.64899562937316 
2355	 1.84855415386533 
2356	 1.46276609306473 
2357	 15.5673365327369 
2358	 23.5689018194828 
2359	 39.9618266626017 
2360	 53.7592315412765 
2361	 39.5390777846269 
2362	 27.6290555827227 
2363	 16.843381589413 
2364	-2.16174516408253 
2365	-6.81728951699738 
2366	-1.85454425718155 
2367	 9.23815752022572 
2368	 34.4394156444725 
2369	 48.0261852693623 
2370	 57.257393243283 
2371	 52.1903675938053 
2372	 29.9211139619075 
2373	 26.3176310879224 
2374	 19.3697910397199 
2375	 22.2649226317317 
2376	 40.0042000078342 
2377	 46.180225552376 
2378	 59.283802929048 
2379	 66.7864292587152 
2380	 56.3091368642324 
2381	 43.8451503125353 
2382	 33.3984522574613 
2383	 31.3946105354757 
2384	 31.5046683818785 
2385	 32.1153464240673 
2386	 36.4654184567715 
2387	 27.1999949972648 
2388	 19.8428897643102 
2389	 20.3037044698808 
2390	 13.8296376691188 
2391	 16.2701521581398 
2392	 16.6807472571558 
2393	 6.91745259871547 
2394	 4.75235562758835 
2395	 6.03574181620686 
2396	 5.38374792104862 
2397	 9.77065505408123 
2398	 14.2741638018944 
2399	 16.5213376288994 
2400	 24.3072675064139 
2401	 28.4206121413217 
2402	 27.181261609878 
2403	 9.53579799566733 
2404	-17.691450758349 
2405	-24.873837688485 
2406	-20.7022431057015 
2407	-2.93555358696452 
2408	 19.889278766205 
2409	 33.1540363926036 
2410	 36.665783191902 
2411	 36.0381586001708 
2412	 39.5842762864594 
2413	 32.1714615413726 
2414	 30.7584610405478 
2415	 36.4671149471749 
2416	 28.2684848684612 
2417	 32.0672334107456 
2418	 31.8536198049257 
2419	 17.7852426778405 
2420	 19.3832416452094 
2421	 23.9606727083338 
2422	 28.2785059031003 
2423	 40.4246017846478 
2424	 53.2420817281346 
2425	 49.6195027864153 
2426	 39.6479915901991 
2427	 25.6428275458746 
2428	 5.76017388395666 
2429	-1.8849683619391 
2430	 0.837091065793167 
2431	 7.85613119719975 
2432	 7.56684506900648 
2433	 13.0183398691125 
2434	 12.6550388641367 
2435	 7.14279029934129 
2436	 11.1812036646613 
2437	 11.1454337135373 
2438	 10.903861054345 
2439	 12.4696116782545 
2440	 18.9627816322378 
2441	 17.8759101473251 
2442	 18.8719864808688 
2443	 15.0755811839762 
2444	 1.60244836817064 
2445	-0.390099931787013 
2446	-7.62087422040359 
2447	-8.61862694464002 
2448	 1.33065595826373 
2449	 8.49186278371833 
2450	 18.6324175340141 
2451	 35.5000798573332 
2452	 54.1205557026495 
2453	 63.6572884774863 
2454	 65.8959571701322 
2455	 57.6005796222577 
2456	 36.564760468782 
2457	 21.9368152651409 
2458	 9.14775684094981 
2459	-6.81261398355229 
2460	-10.975129735794 
2461	-14.2705263455125 
2462	-14.8871364533609 
2463	-5.56784147526953 
2464	 2.98469652933861 
2465	-1.5934213405684 
2466	-4.2640200709326 
2467	-10.1088121760269 
2468	-17.5071200281609 
2469	-20.2104627373795 
2470	-19.6503299935049 
2471	-23.1018089089592 
2472	-13.1865508080696 
2473	 0.477656038169546 
2474	 6.47098451296544 
2475	 10.2941501355497 
2476	 2.31580878317549 
2477	-6.81612343074381 
2478	-2.20002787035054 
2479	 14.4097522536298 
2480	 30.4490008888822 
2481	 50.2830461266775 
2482	 54.9987886769377 
2483	 36.9902627418871 
2484	 27.0392067779679 
2485	 8.89152625768441 
2486	 1.0485651572643 
2487	 11.1826263325727 
2488	 16.6201870551813 
2489	 31.5743270627574 
2490	 32.5089584879706 
2491	 24.1357638286676 
2492	 15.3337151569217 
2493	-1.27740232833462 
2494	-4.54558154960394 
2495	-3.49522291418341 
2496	-1.9198748748647 
2497	 6.05937720396996 
2498	 6.71189800657323 
2499	 11.5298161729218 
2500	 18.1263162786032 
