Wavelength	2mm_blackPC00000.asd
350	 2.28306609241713 
351	 1.91400663251977 
352	 1.4947051532164 
353	 0.21698597779256 
354	 1.05299303584242 
355	 1.93511737014416 
356	 1.1571283136467 
357	 0.557081022509148 
358	 0.37102615333371 
359	 0.718002492195891 
360	 1.55762874767633 
361	 1.90285621658139 
362	 1.73811256828956 
363	 1.33449740620868 
364	 0.942194003725331 
365	 0.527289356861823 
366	 0.269196133919154 
367	 0.656743557217453 
368	 0.90802688364911 
369	 0.817939804875885 
370	 0.506237227095877 
371	 0.814177139967762 
372	 1.01457363328813 
373	 0.760815694359847 
374	 0.672177749095925 
375	 0.40485075567625 
376	 0.436314459453772 
377	 1.47084419294569 
378	 1.85861535777888 
379	 1.5409154247185 
380	 0.75029874657996 
381	-0.528683286857964 
382	-0.438702838328773 
383	 1.16100183980909 
384	 2.85775308664658 
385	 1.30857298012749 
386	-0.327964340413828 
387	 1.2301649765127 
388	 0.908017135865442 
389	 0.532955160813698 
390	 1.17324989784123 
391	 2.53521163751167 
392	 1.74439441822492 
393	 0.359003144739883 
394	 1.31668041590744 
395	 0.602680450500501 
396	-0.122298707972845 
397	 0.357122752300829 
398	 0.293055534937734 
399	 0.587293968548657 
400	 0.917291822892453 
401	 8.45832827253561E-02 
402	-0.840531924220068 
403	-0.728015096230315 
404	 0.846906768750903 
405	 1.25743677954749 
406	 1.17482208618413 
407	 0.943998673049285 
408	 9.43664786437064E-02 
409	 0.102811763608344 
410	 1.15100004694675 
411	 2.61243744290425 
412	 2.26119458370869 
413	 1.12154807923906 
414	 0.441692746170796 
415	 0.824560756219148 
416	 1.00475330083718 
417	 0.586202893163689 
418	-7.07927948863402E-02 
419	 1.14094053463332 
420	 2.07392367375191 
421	 0.330168713808139 
422	-0.781509740841324 
423	-0.966989831595976 
424	-0.325444270821301 
425	 0.746527624681514 
426	 2.7845385271565 
427	 4.15395201594911 
428	 2.22519787344226 
429	-0.324205286360326 
430	-1.90300169001662 
431	-1.47700420007043 
432	 1.33528206472806 
433	 2.69782755198485 
434	 1.8003381104742 
435	 1.76909189738412 
436	 8.22768923682804E-03 
437	-1.82495535005753 
438	-0.945238493848076 
439	 0.178354164781006 
440	 0.797782456566681 
441	 0.713101885445577 
442	 0.620039120558421 
443	-0.627954333676172 
444	-2.05410680797104 
445	-0.710071849798346 
446	 0.331852354224876 
447	 0.63541546309525 
448	 0.524832188367771 
449	-3.47010813962488E-03 
450	-0.244569661232351 
451	 6.89440394009734E-02 
452	 0.205841648583861 
453	 0.501921539050235 
454	 1.00440339662466 
455	 1.56513441236132 
456	 1.23098872974331 
457	 0.604524194202603 
458	 0.445337007638373 
459	 0.241478780216177 
460	-0.131911383565934 
461	-0.320917723973796 
462	 1.10897127024373 
463	 1.85345124020538 
464	 1.77029184048472 
465	 1.76828289686155 
466	 0.240290301833933 
467	-1.1509552404606 
468	-0.789840328485718 
469	 0.331336210318439 
470	 0.406478447379413 
471	-0.764572274324411 
472	-0.965311173361146 
473	-0.97638325782986 
474	-0.816056129819966 
475	-0.223753854866854 
476	 1.53553834762308 
477	 2.11774133779555 
478	 0.160943456605546 
479	-0.406461408374256 
480	-0.78254155768995 
481	-1.26162856398836 
482	-0.797682986111723 
483	 0.462387089975011 
484	 1.36601405950083 
485	 0.488149491913521 
486	-0.173559091681027 
487	-9.99780033379436E-02 
488	 0.458281914913313 
489	-0.623784529861679 
490	-0.673270361376388 
491	 0.492094675653136 
492	-0.291711031853622 
493	-0.545203304525298 
494	 0.158116758462512 
495	 1.28993661102573 
496	 0.81656004491521 
497	-0.371658006997597 
498	-1.02749595376424 
499	-0.267468767032185 
500	 5.84188405627753E-02 
501	-0.272800675421553 
502	 0.717693535021027 
503	 0.478226470396332 
504	-0.686152671436995 
505	-1.32988057712077 
506	-1.70561232799744 
507	-1.41325059012265 
508	-0.252148184329216 
509	 1.51184750308054 
510	 1.19632898916835 
511	-1.03127400542001 
512	-1.14126126178265 
513	-1.34671050269947 
514	-1.69292536642681 
515	-1.49511753188901 
516	-1.22953911241578 
517	-0.842051387556342 
518	-0.528265981839156 
519	-2.00576291386905 
520	-1.9684227886338 
521	-0.291131115134361 
522	-1.74303204425492 
523	-1.5448433391024 
524	-0.144610475202968 
525	-0.249853207563539 
526	-1.17121784604598 
527	-1.82408189591348 
528	-1.50108214694665 
529	-1.46281184857972 
530	-0.994164526853285 
531	 5.95661698100152E-02 
532	 1.02963374296153 
533	 0.782232784640398 
534	-0.247287562527717 
535	-0.739400754990054 
536	-1.54826921587018 
537	-1.93197303630438 
538	-1.26506112979806 
539	-0.687845673711624 
540	-0.569642948334452 
541	-0.982988626116943 
542	-1.70226273711545 
543	-1.78453308967265 
544	-1.17808624123195 
545	-0.444093718234907 
546	-0.2802702277072 
547	-0.490638499476624 
548	-0.667793206459959 
549	-0.713742596409248 
550	-1.14836545700636 
551	-1.80685574920348 
552	-0.810517551551098 
553	-0.116052792958022 
554	-0.686240983708088 
555	-2.84606972669247 
556	-2.46991230943803 
557	-0.81327954095617 
558	-0.370387315348854 
559	-6.44398399767862E-02 
560	 0.076995341239593 
561	-0.22943991163038 
562	-1.98037859556658 
563	-2.96147398208799 
564	-2.47759723030375 
565	-1.12642374612 
566	-1.14516367026144 
567	-1.61039048499735 
568	-0.744546290867345 
569	-0.270881837652239 
570	-0.623713793011256 
571	-1.58219278191693 
572	-1.63728298864326 
573	-0.633080039704063 
574	 0.680697026668103 
575	 0.328849578283723 
576	-0.200740967608078 
577	-1.21847602344054 
578	-3.30957143656375 
579	-1.76410855848518 
580	 6.92803571300141E-03 
581	-1.01551747201054 
582	-1.13596666664366 
583	-2.17562481134894 
584	-3.88071024091821 
585	-2.31162729380865 
586	-1.59954997861307 
587	-1.70442229574162 
588	-0.661415835053675 
589	-0.650368101390555 
590	-0.679542072652085 
591	 0.1796034718019 
592	-0.835667079258638 
593	-1.11733978643142 
594	 9.90752265985625E-03 
595	-1.08742253231359 
596	-1.93529806691208 
597	-1.87147185488721 
598	-1.26060018245532 
599	-0.166276946720352 
600	 0.199423758645289 
601	-1.03408978904137 
602	-0.757140313567361 
603	-0.534085275452089 
604	-1.36465345255909 
605	-2.02441774077729 
606	-2.62167332974672 
607	-2.64230826903938 
608	-0.927947626455233 
609	-1.38146204902351 
610	-2.35452071957483 
611	-0.986760213839038 
612	-2.28765397321449 
613	-3.37051656974325 
614	-2.10903485267197 
615	-1.51294847239376 
616	-1.17871513548403 
617	-0.985470476748443 
618	-1.16925187491025 
619	-1.19761424196168 
620	-0.911117167984598 
621	-0.372430364154829 
622	-4.97711158166814E-02 
623	-1.03787097568462 
624	-3.31620558505581 
625	-2.23718654902601 
626	-1.25821216336027 
627	-1.70356639333874 
628	-1.31334495779233 
629	-0.130931130050719 
630	 0.87570785611584 
631	 0.109595604778121 
632	-1.05430297108359 
633	-1.29677024363213 
634	-0.171137302019077 
635	-1.6947479443042 
636	-2.19987177977682 
637	-0.451073097177 
638	-0.996489005307484 
639	-2.00582687678972 
640	-2.36554402241529 
641	-1.2060173602908 
642	-1.67126191897108 
643	-2.3753902623541 
644	-1.23640884074103 
645	-0.95140900200654 
646	-1.850051831121 
647	-3.16874346369461 
648	-1.67423569808806 
649	-1.39111215078097 
650	-2.38002047547339 
651	-0.788330937975787 
652	-1.76098942836325 
653	-3.18305607078406 
654	-1.14286501832261 
655	-0.913791434342774 
656	-1.25943193550726 
657	-0.799150909041338 
658	-0.383926879813428 
659	-1.03183041696344 
660	-2.34786309124479 
661	-2.08237023358639 
662	-0.676667217677019 
663	 0.562533783125266 
664	-3.19332839185433E-02 
665	-0.770757813581036 
666	-0.871520058718126 
667	-0.259108310813156 
668	-1.03055945222185 
669	-1.10318774537906 
670	-0.179568673755274 
671	-1.24470977294621 
672	-1.11161347884534 
673	-0.244120919205926 
674	-0.940483235120763 
675	-1.54264067967864 
676	-2.10256418029079 
677	-2.71921650016169 
678	-1.82427578130154 
679	-1.57260947271912 
680	-2.42993179971885 
681	-0.993056064015514 
682	-0.395736548322095 
683	-1.22360579583871 
684	-2.45888842611793 
685	-2.49755025172758 
686	-1.93744563917994 
687	-1.84888052116939 
688	-1.83313043917968 
689	-1.73783065854093 
690	-1.64052053712756 
691	-2.22671176701914 
692	-2.47481742105361 
693	-2.00767311835897 
694	-0.930266104355695 
695	-1.24523324018335 
696	-1.45485016616178 
697	 0.235143120319456 
698	-1.51254486686397 
699	-1.56147777401744 
700	 2.03384337084356 
701	-0.256505444855249 
702	-1.727544735965 
703	-0.684899979671574 
704	-1.14318002184705E-03 
705	-0.886207901956033 
706	-1.51902055751316 
707	 0.413398582989961 
708	-0.194087727655288 
709	-1.30739932740438 
710	-1.24283547576925 
711	-2.2563530590704 
712	-2.55442307942564 
713	-1.87011763866482 
714	-1.62534886774144 
715	-1.86342728555633 
716	-1.80623880459839 
717	-0.642315146723753 
718	-1.80118871512824 
719	-2.79015790427063 
720	-1.69782318755031 
721	-1.20699265357779 
722	-0.982132896503208 
723	-1.11824263445119 
724	-2.41613811038583 
725	-2.54047012793012 
726	-1.49872087354116 
727	-0.402247922341338 
728	-0.247717017938423 
729	-1.05348956878756 
730	-2.3900808613985 
731	-3.29213512237327 
732	-2.86484332129288 
733	-1.36739057924159 
734	-0.572613434722688 
735	-0.32371967432583 
736	-0.384410069476008 
737	-0.502170739233382 
738	-2.40178404031229 
739	-3.33921037568344 
740	-1.68486969938377 
741	-2.3167890821149 
742	-1.86398852093363 
743	-0.151052805449838 
744	-1.6926627859005 
745	-1.00962462675943 
746	-8.36268667921386E-04 
747	-3.04967615833668 
748	-3.80069069257581 
749	-2.31654237756502 
750	-0.248511507120326 
751	-0.833968983083963 
752	-1.59443609959659 
753	-1.64973717659708 
754	-2.27523487373121 
755	-1.8852426861969 
756	-0.81448625591274 
757	-0.195367050229277 
758	-8.35305787064404E-02 
759	-1.36079052836157 
760	-3.80354699918267 
761	-3.43136436870954 
762	-2.41589009312979 
763	-1.63060502617582 
764	-0.35910399646186 
765	-0.68636444041727 
766	-1.76870668549335 
767	-1.72177186810558 
768	-0.938157905244298 
769	-0.257269923432595 
770	-0.327017842823903 
771	-1.32912250067562 
772	-0.864599939835016 
773	 0.536901540765434 
774	-0.77859141256213 
775	-1.65332976524627 
776	-1.51373863913973 
777	-0.741601290809157 
778	-0.452397292918772 
779	-7.18257426509657E-02 
780	 0.493255204611576 
781	-0.434245144885635 
782	-1.74274364724681 
783	-2.54600925321585 
784	-2.05297266587774 
785	-0.758855094646669 
786	-0.374755527674671 
787	-2.04031086925894 
788	-1.32296519884991 
789	-0.981487818216074 
790	-2.09984807179234 
791	-1.13450817745081 
792	-0.434711412564449 
793	-0.604807840811369 
794	-1.24283913792312 
795	-1.16544445547011 
796	-0.950065470432486 
797	-1.16862803501512 
798	-0.264268895495372 
799	 0.043484909476215 
800	-0.652949465469022 
801	-0.482346924127231 
802	-1.0661238709481 
803	-1.64663354607983 
804	-0.738247131228482 
805	-2.04151333265275 
806	-2.92484719031515 
807	-1.57540264190689 
808	-2.03155805669918 
809	-2.85152755205406 
810	-2.98041029136791 
811	-1.66869573463301 
812	-1.55927484094914 
813	-1.95105361212418 
814	-1.26323966682556 
815	-0.41546783502086 
816	-2.20706391311011E-02 
817	-0.344277664484522 
818	-1.05514954227529 
819	-1.57166133770848 
820	-1.71583994166053 
821	-1.60249158596844 
822	-0.91668810953855 
823	-0.870296711959063 
824	-2.07820675541601 
825	-1.13438698000466 
826	-0.104825676289474 
827	-0.188384381492768 
828	-1.2945881465137 
829	-0.980372923922762 
830	-0.431047677600658 
831	-1.96112628287618 
832	-2.49498613084198 
833	-2.39687474222594 
834	-2.00997310211562 
835	-7.91090147301569E-03 
836	 0.201271668659681 
837	-1.2554222110619 
838	-1.39393093800519 
839	-1.04406937473668 
840	-0.99601670322738 
841	-1.67178382375719 
842	-1.46172651712208 
843	-1.16141315776182 
844	-1.19203359427974 
845	-1.31184224741758 
846	-0.750395144595929 
847	-0.26494596134886 
848	-0.974916053013819 
849	-0.306653500683152 
850	-0.251700394236982 
851	-1.69957902648495 
852	-1.15497571123207 
853	-1.28968793597208 
854	-1.76334741045379 
855	-0.163500976162124 
856	 0.86209421013709 
857	 0.214438837634114 
858	-1.9300984197826 
859	-1.95886506677036 
860	-1.58918438374898 
861	-1.15011002484132 
862	 1.15458660636377 
863	 0.679360178634442 
864	-1.57805626965667 
865	-2.73946499276459 
866	-2.54246541031464 
867	-1.0611602728311 
868	 0.49608684299873 
869	-1.76871870859262 
870	-1.96291783430804 
871	-0.514801028240002 
872	-0.834461655200793 
873	-3.06095661030169E-03 
874	 0.400555301442825 
875	-0.795287694358282 
876	-2.01496113560687 
877	-1.08636437576892 
878	 0.654161439825384 
879	-0.914083883718555 
880	-1.50290974383619 
881	-0.977176297646879 
882	-0.299654398664316 
883	-0.763571683175157 
884	-1.58846015021087 
885	-1.86037621049032 
886	-0.485434327009028 
887	-1.75768152907726 
888	-2.66345856555814 
889	 0.120228285844564 
890	-2.42055972760372 
891	-3.15944600014375 
892	-0.196233399621918 
893	-1.55418114193096 
894	-1.35472553501485 
895	 4.94029063351884E-02 
896	 9.38199290842816E-02 
897	-2.11466232615826 
898	-3.32189925754852 
899	-2.14482242869975 
900	-1.70223995146529 
901	-0.718286209880938 
902	 0.221674926399003 
903	-3.92927752894483E-02 
904	 0.374573522201128 
905	 0.120634276763403 
906	-1.2327612759428 
907	-0.959420666278399 
908	-0.113829284800069 
909	 0.48571217952494 
910	 0.167251353926829 
911	-0.116720713071119 
912	-0.551122471779889 
913	-1.25731925611514 
914	-1.85932661798927 
915	-0.871481673171176 
916	 0.31525941080386 
917	-1.39832978750415 
918	-2.1616801180915 
919	-1.93149787763502 
920	-1.42474996894009 
921	-1.52202952791842 
922	-0.596255584015322 
923	 0.210366497638867 
924	-2.00045405222141 
925	-2.61429232313708 
926	-2.91492482949628 
927	-3.93304555153834 
928	-2.19900170796161 
929	-0.661769469697563 
930	-0.110820054849938 
931	 0.230852302364664 
932	-1.00770653043503 
933	-2.04071861586147 
934	-1.52305409508721 
935	-1.18308650369159 
936	-0.268806318213988 
937	 0.381409427763262 
938	-0.963114556221609 
939	-1.09084200147369 
940	-1.30427776917382 
941	-2.36378362552444 
942	-0.977702260520985 
943	-0.425440129850796 
944	-0.97464771469153 
945	-1.00114506313369 
946	-1.00707700006632 
947	-1.20178204457015 
948	-1.57715893784959 
949	-1.73714142846424 
950	-1.11437127870829 
951	-0.431015556320808 
952	-0.905415586690151 
953	-0.626293949010866 
954	-0.464267786807355 
955	-1.0098723553393 
956	-1.73936670730406 
957	-0.554927582113055 
958	 0.461022652855913 
959	-1.77507898207016 
960	-2.45163739586902 
961	-1.86719923994492 
962	-0.91577955585494 
963	-0.645178203285848 
964	 0.352046541357501 
965	 0.969043687589238 
966	 2.56756165794454 
967	 1.75374929579917 
968	-0.129831845580722 
969	 0.39926562184779 
970	 2.73293321309003 
971	 3.13645864817759 
972	 4.45896507279885 
973	 4.23025201685897 
974	 1.03138874936545 
975	 0.472671300303053 
976	 1.09576246192846 
977	 1.27489905669089 
978	 3.26967368259085 
979	 3.7611288378192 
980	 1.22910525567151 
981	 1.46015593025899 
982	-0.342451745491544 
983	-2.78529474340892 
984	-1.67334456157108 
985	-0.919435570395736 
986	-1.11175006816858 
987	-1.63899562100477 
988	-1.41987544294042 
989	-0.850047035349129 
990	-1.8017668375346 
991	-4.04006844903162 
992	-3.31831403685036 
993	-2.68907823750168 
994	-1.72072666736344 
995	 4.43452154601223 
996	 7.36441641858565 
997	 2.41124519912555 
998	-0.159535737609427 
999	-9.88449449699785E-02 
1000	-1.6823794904161 
1001	 0.278389572424672 
1002	 5.56599090048373 
1003	 4.02908827578465 
1004	-0.258433685426806 
1005	-1.24736333488934 
1006	-1.43798255761292 
1007	-2.34886183355825 
1008	-3.74321941640211 
1009	 0.946470651633134 
1010	 2.39138809151456 
1011	 0.412954849516727 
1012	-0.613439139192843 
1013	-2.33510339601296 
1014	-2.89413810925153 
1015	-0.929787071254049 
1016	 0.16321372408435 
1017	 1.53608439306162 
1018	 2.22573652522333 
1019	 0.545224070375411 
1020	 1.32831717676155 
1021	 1.20505891563915 
1022	-1.61545747361969 
1023	-2.71585723472406 
1024	-2.42307324228809 
1025	-3.66617738938236 
1026	-5.07648500305505 
1027	-1.71651602186774 
1028	 0.93609843687333 
1029	 1.16734404072366 
1030	 3.42842087746517 
1031	 2.07263628330731 
1032	-2.74034561267183 
1033	-4.2079320911182 
1034	-3.91782853955219 
1035	-3.00023910050522 
1036	-1.10372075414932 
1037	 2.242383242356 
1038	 5.61391502306328 
1039	 7.33532613413234 
1040	 7.35188844872948 
1041	 5.82425686098308 
1042	 5.76256860735393 
1043	 4.71874368299037 
1044	 2.51793117302247 
1045	 3.77540659836013 
1046	 4.99498289358531 
1047	 2.61643819305214 
1048	 1.01065123088346 
1049	-1.55035316153296 
1050	-2.50557554590411 
1051	-3.25834370263373 
1052	-3.53547439964361 
1053	-0.102011531383782 
1054	 2.05166230232086 
1055	 1.62904248182029 
1056	-1.00255031740803 
1057	-1.78757335681298 
1058	-4.69793870322818 
1059	-5.21657624685901 
1060	-1.31290002196733 
1061	-0.178642073147101 
1062	 5.03811525583431E-02 
1063	-0.914634086534476 
1064	-1.60511477975474 
1065	-4.31282964645681 
1066	-3.70196100995663 
1067	-2.85444670602603 
1068	-5.291866904913 
1069	-3.67492258708669 
1070	-0.372077374433048 
1071	-8.62582635814765E-03 
1072	 1.21662051824634 
1073	 4.06967802482322 
1074	 5.0634067929063 
1075	 3.25533136924279 
1076	 2.12264222296031 
1077	 1.26237656487571 
1078	 0.418758733855812 
1079	-2.97861837377239 
1080	-2.54782268161028 
1081	 2.37281353160046 
1082	 3.44974719834739 
1083	 3.2099229811894 
1084	 4.60931111279117 
1085	 5.88095858781615 
1086	 6.64450337036961 
1087	 8.99204427966268 
1088	 10.60144388798 
1089	 8.75724782285528 
1090	 6.59947458854398 
1091	 6.96103743063794 
1092	 10.2740973616482 
1093	 9.97418649956009 
1094	 8.74094655865559 
1095	 8.30781480919038 
1096	 5.17003898078001 
1097	 3.90976769115216 
1098	 5.92246876581922 
1099	 5.96194427606144 
1100	 4.27733200463929 
1101	 4.10088744805229 
1102	 4.43666763153121 
1103	 4.26016462563898 
1104	 3.99250444680472 
1105	 4.71790969385419 
1106	 4.64145172936055 
1107	 6.52738440370133 
1108	 9.21778808270382 
1109	 9.14304281766629 
1110	 7.75756981790538 
1111	 3.16991657105744 
1112	 2.11470948409777 
1113	 0.722411946691526 
1114	 0.836463512351846 
1115	 4.8503506302337 
1116	 5.20725844607496 
1117	 2.70408677647755 
1118	 2.63959454023238 
1119	 3.00356145205232 
1120	 2.97256427346163 
1121	 5.55160638195108 
1122	 5.54647554711667 
1123	 1.35181306106058 
1124	 0.224117961667263 
1125	 3.35007058147047E-02 
1126	-0.31683668220546 
1127	 1.91850665654165E-02 
1128	 2.92704799174065 
1129	 2.98784105384158 
1130	 0.882486789585278 
1131	 1.29503280969931 
1132	 2.50246385260122 
1133	 2.77776257746587 
1134	 3.85104946241219 
1135	 4.42132295392654 
1136	 3.29826849700786 
1137	 3.869573242444 
1138	 6.91464366668419 
1139	 7.17862975738056 
1140	 5.95657756147416 
1141	 5.63094789896402 
1142	 3.18258282516218 
1143	 2.90627385904242 
1144	 6.25831971302212 
1145	 6.80719993207243 
1146	 5.29092597930445 
1147	 5.58853331894534 
1148	 6.07567007740256 
1149	 5.74591930729482 
1150	 5.83625161349151 
1151	 7.7478698112188 
1152	 7.972578771154 
1153	 6.97380114131097 
1154	 5.76801759027709 
1155	 3.78202602184825 
1156	 3.41824085052997 
1157	 2.59591536789092 
1158	 2.64849654897297 
1159	 5.53415683822992 
1160	 5.83999446154731 
1161	 4.29306513234015 
1162	 3.87342295277446 
1163	 2.97455381560199 
1164	 2.84323011086271 
1165	 4.13516121130166 
1166	 4.32654649008627 
1167	 5.40737697054416 
1168	 3.29003703473776 
1169	 2.25110250732088 
1170	 2.95871944280837 
1171	 3.09980989149648 
1172	 4.13611010006565 
1173	 4.66384121458552 
1174	 4.61607899695838 
1175	 5.17805013516845 
1176	 5.99272289951226 
1177	 6.52449733193498 
1178	 7.51031179750362 
1179	 7.85137367032836 
1180	 7.7409695381601 
1181	 8.21275140725014 
1182	 8.71060641936635 
1183	 8.61650730686453 
1184	 8.68993720474582 
1185	 8.37933031034792 
1186	 7.1890258824138 
1187	 6.31456162767563 
1188	 5.20871558356359 
1189	 4.94294639414921 
1190	 3.80259462549376 
1191	 4.42068572425651 
1192	 10.7480890650888 
1193	 14.3880301388962 
1194	 14.0589994550615 
1195	 15.9526912375754 
1196	 13.6999245570629 
1197	 3.9118331262497 
1198	 1.87102200363608 
1199	 1.73639602226591 
1200	 1.98221953135592 
1201	 6.91691098856334 
1202	 7.44312678771465 
1203	 6.24840536923323 
1204	 5.82306279041144 
1205	 2.72199045654111 
1206	 2.50557680938839 
1207	 4.82003129757576 
1208	 4.99419551624221 
1209	 4.9048962507458 
1210	 5.58811353944858 
1211	 5.20644636007944 
1212	 6.66082883041005 
1213	 7.45289370491141 
1214	 7.2873928012442 
1215	 7.35274547575966 
1216	 7.55940398363561 
1217	 6.77476780306996 
1218	 7.79753090446961 
1219	 10.2991610530982 
1220	 12.163022822239 
1221	 14.3442689381857 
1222	 20.4636029370819 
1223	 20.8087473057135 
1224	 17.1851193378403 
1225	 14.6809547555328 
1226	 8.4763266982874 
1227	 7.20866552616574 
1228	 8.86525381263452 
1229	 9.80958405376936 
1230	 14.4103058131173 
1231	 15.6060517878376 
1232	 13.4553013844771 
1233	 13.2543994037013 
1234	 13.3900415631573 
1235	 11.9450131382409 
1236	 9.94145008427118 
1237	 9.77252463759421 
1238	 6.47172932846532 
1239	 4.90557551722477 
1240	 5.67251110653865 
1241	 4.34436491730444 
1242	 3.64750968756286 
1243	 5.40103545164896 
1244	 7.67502898943692 
1245	 10.1268670252101 
1246	 12.4624572278692 
1247	 11.6329251702864 
1248	 10.9114402721888 
1249	 12.7752881784109 
1250	 12.7373470512686 
1251	 12.99701345194 
1252	 12.1528951831433 
1253	 7.82190153817936 
1254	 7.30495399302599 
1255	 9.58796281248127 
1256	 10.3660596490406 
1257	 12.5776502382985 
1258	 13.2627123170863 
1259	 11.8261243874624 
1260	 10.3408198973873 
1261	 7.51602430397273 
1262	 8.24894980766073 
1263	 8.83667863750848 
1264	 10.2183809694971 
1265	 12.0928388645156 
1266	 14.1294598070828 
1267	 14.0081825643671 
1268	 12.4026869482632 
1269	 14.2639844523353 
1270	 16.5316536202367 
1271	 17.1935870781934 
1272	 17.5915055006566 
1273	 18.2066629638633 
1274	 15.8688040371478 
1275	 11.0334971672211 
1276	 10.2228759732677 
1277	 10.2279327533048 
1278	 9.24837192514448 
1279	 8.44348465356514 
1280	 9.07912852168927 
1281	 9.55227152553415 
1282	 9.10840850974026 
1283	 8.72780978419725 
1284	 10.6118811499788 
1285	 10.8513464403132 
1286	 8.59354245787078 
1287	 8.01473065852031 
1288	 8.32461936248518 
1289	 7.42631684161184 
1290	 8.73977590564263 
1291	 10.5023351697585 
1292	 14.207449296841 
1293	 17.4828644271948 
1294	 15.402900258065 
1295	 13.0242052493525 
1296	 10.8191701632426 
1297	 7.87385361688403 
1298	 7.50254587788103 
1299	 8.96512869994635 
1300	 9.49677918172999 
1301	 11.4225364574846 
1302	 14.1869293427662 
1303	 14.6683438004868 
1304	 13.989075413165 
1305	 12.112230566148 
1306	 10.5242162408295 
1307	 9.69022860171431 
1308	 8.81301193796655 
1309	 10.1516334591497 
1310	 11.3901115729694 
1311	 12.0753795479472 
1312	 13.8679004004773 
1313	 17.4701435868882 
1314	 18.3808464802889 
1315	 19.4883399144243 
1316	 18.4587376656927 
1317	 13.8422536810945 
1318	 11.0385016315687 
1319	 7.28238487118525 
1320	 5.73296823248323 
1321	 5.96810255812369 
1322	 5.61291352154608 
1323	 5.48964239996647 
1324	 7.49122376299635 
1325	 9.12443626724439 
1326	 9.39582077501175 
1327	 11.7360339868566 
1328	 10.6349962027344 
1329	 6.54793838365443 
1330	 6.56471142733801 
1331	 4.82934734556008 
1332	 5.54850962934813 
1333	 9.04452979862808 
1334	 8.54779732393775 
1335	 10.0035835201974 
1336	 11.3632550116828 
1337	 10.8170493472436 
1338	 12.3954250777709 
1339	 12.5116819534489 
1340	 11.0376604196401 
1341	 12.7767098215533 
1342	 13.8132070081479 
1343	 13.7085338131175 
1344	 15.2556686407133 
1345	 14.9936366560323 
1346	 13.4010927371207 
1347	 11.9687578756207 
1348	 9.55841035197708 
1349	 9.69192732762455 
1350	 10.6084045741377 
1351	 12.6716844102529 
1352	 18.970091713128 
1353	 20.2805535620127 
1354	 19.1706984458104 
1355	 18.4008915199405 
1356	 17.7478034011661 
1357	 15.8940290207487 
1358	 15.9654548863911 
1359	 14.6202510534262 
1360	 12.4680584706204 
1361	 12.444331019785 
1362	 13.0674074228316 
1363	 15.020208470711 
1364	 15.0563340158787 
1365	 15.0835907460694 
1366	 16.1163878335187 
1367	 16.0421922814023 
1368	 17.501353959738 
1369	 14.7539629108947 
1370	 9.87588046984538 
1371	 8.40709873140967 
1372	 6.72186841431012 
1373	 9.40830644499341 
1374	 13.3427699798467 
1375	 13.9105199965531 
1376	 12.8452067404589 
1377	 12.0023219173191 
1378	 13.4752989062431 
1379	 15.5364230968969 
1380	 17.3785618646777 
1381	 15.1025429195199 
1382	 13.4558184886449 
1383	 14.0392790049445 
1384	 12.8487501601357 
1385	 15.3820323607301 
1386	 15.4954182250998 
1387	 13.2532427102068 
1388	 14.3297142211814 
1389	 12.320930352323 
1390	 12.9031919836107 
1391	 17.389430982276 
1392	 18.9953648218915 
1393	 20.5419475027427 
1394	 22.7625439771853 
1395	 24.4426233682903 
1396	 24.3959142597326 
1397	 25.0251874479651 
1398	 22.6427346925206 
1399	 21.6860734833403 
1400	 19.6421780922776 
1401	 18.3603352056475 
1402	 17.9722075369895 
1403	 15.6462733071451 
1404	 14.6794946699825 
1405	 12.8682998192356 
1406	 13.9835752620505 
1407	 17.0515582202507 
1408	 17.6566405507208 
1409	 18.8441003319481 
1410	 19.6614247445733 
1411	 20.201235236066 
1412	 21.098989270683 
1413	 21.2257700830444 
1414	 21.62508845989 
1415	 20.1662461232843 
1416	 18.1031737217371 
1417	 18.473920728203 
1418	 18.929443924992 
1419	 19.1293006160461 
1420	 21.6622428643343 
1421	 23.3122594060359 
1422	 21.4235382203387 
1423	 21.2679194417418 
1424	 17.8751586163682 
1425	 12.5199761907162 
1426	 12.7038111669737 
1427	 14.3924490208762 
1428	 18.5035056368827 
1429	 23.2513455760962 
1430	 25.5267719843828 
1431	 26.1579645630473 
1432	 24.4856895356187 
1433	 25.126096001686 
1434	 26.6731843944909 
1435	 27.0073822471206 
1436	 29.1382507367332 
1437	 28.6434527330774 
1438	 27.6452303531367 
1439	 25.092394195519 
1440	 20.3505520975859 
1441	 19.1935598846779 
1442	 21.0459814323217 
1443	 26.620750132861 
1444	 28.6755001107342 
1445	 28.3769684240264 
1446	 25.2833077264444 
1447	 23.3566962103927 
1448	 17.3778720852457 
1449	 16.1973947187778 
1450	 17.5442005509534 
1451	 18.5241352912536 
1452	 19.6928349647113 
1453	 25.6368383980093 
1454	 29.716141316362 
1455	 29.140512257932 
1456	 28.3993306093792 
1457	 26.2957897116197 
1458	 21.6831072042857 
1459	 21.6354353047244 
1460	 23.2529758684397 
1461	 23.9453551771213 
1462	 28.2587197392981 
1463	 29.6320660918705 
1464	 25.6891703696255 
1465	 21.7880569327187 
1466	 16.91816379729 
1467	 14.7591726817747 
1468	 16.0271892282229 
1469	 17.4363753415124 
1470	 20.6273191537918 
1471	 21.8039008664027 
1472	 25.2116177224064 
1473	 26.6209900902482 
1474	 23.7871285020148 
1475	 24.114071048366 
1476	 20.7321652748653 
1477	 18.8358673090356 
1478	 18.7365640231869 
1479	 18.0267131555653 
1480	 18.6097481066353 
1481	 18.798918607309 
1482	 21.6033282564875 
1483	 22.9770818947321 
1484	 24.0037810771943 
1485	 25.3357977110179 
1486	 23.699794182318 
1487	 22.9271080796567 
1488	 22.8787554253657 
1489	 21.2577420755345 
1490	 21.1216127088635 
1491	 20.2384394464028 
1492	 19.1831031969535 
1493	 19.6651595608096 
1494	 18.7142570334549 
1495	 18.8880885508626 
1496	 18.5503580777571 
1497	 19.1775803334941 
1498	 21.5189103693084 
1499	 22.8514753955333 
1500	 24.9951744653247 
1501	 24.7893836138844 
1502	 23.2940491187408 
1503	 23.7694191355486 
1504	 23.9079839349588 
1505	 25.3757035579562 
1506	 28.2945366645962 
1507	 28.8263462692865 
1508	 26.23469066274 
1509	 22.7081043274987 
1510	 21.2977055893558 
1511	 20.2940414702326 
1512	 21.7170734130533 
1513	 25.8472061933223 
1514	 26.8417849280501 
1515	 28.3562621872424 
1516	 29.9247071261676 
1517	 30.3716558862785 
1518	 29.5445700489207 
1519	 26.8385578997135 
1520	 24.8717924290766 
1521	 22.9265085352588 
1522	 25.0133653991513 
1523	 29.3208432570782 
1524	 32.8651796018528 
1525	 36.0106864095434 
1526	 36.7972748940996 
1527	 33.7055518549589 
1528	 32.8304652584772 
1529	 33.2805957555936 
1530	 29.2300970115739 
1531	 29.6270522091354 
1532	 28.9394854104369 
1533	 25.4872977889717 
1534	 26.2425252059914 
1535	 25.7514733059443 
1536	 26.6020512458547 
1537	 29.0766448384002 
1538	 28.7979202977194 
1539	 30.4929812977974 
1540	 32.3898745276706 
1541	 30.6972158736883 
1542	 31.2813973214125 
1543	 31.8552860301949 
1544	 29.6044478050255 
1545	 28.2810755348296 
1546	 25.3136581826766 
1547	 22.3050491222671 
1548	 21.2352886946839 
1549	 21.0664370016763 
1550	 24.7146596810351 
1551	 27.2379903081669 
1552	 28.8424737582139 
1553	 30.5860787403258 
1554	 29.8531736080469 
1555	 29.2362564916035 
1556	 28.234559548876 
1557	 27.4520022056482 
1558	 28.0628068662091 
1559	 29.7473740749459 
1560	 29.89446351637 
1561	 29.149466285599 
1562	 25.6490786551355 
1563	 21.7730054021769 
1564	 21.735989745998 
1565	 21.1314627751908 
1566	 24.2280925406583 
1567	 28.5319877999201 
1568	 28.9286168541311 
1569	 31.4757906631466 
1570	 32.8495862727508 
1571	 31.8486389708505 
1572	 33.6700196323547 
1573	 33.9216776981204 
1574	 32.4023385423904 
1575	 30.6733866953301 
1576	 26.7255900849279 
1577	 22.912563984644 
1578	 19.5730134414209 
1579	 18.8905253479505 
1580	 19.0337277969904 
1581	 17.248824463726 
1582	 16.6527021018689 
1583	 18.5183454274042 
1584	 22.1331528471034 
1585	 24.6934340137925 
1586	 27.4656944147834 
1587	 26.7131751094976 
1588	 22.613479776739 
1589	 21.1009280829694 
1590	 21.1260741289371 
1591	 24.2643382291261 
1592	 26.9472209240962 
1593	 28.7784650519873 
1594	 31.3404979581798 
1595	 30.1192334588154 
1596	 30.1781994490632 
1597	 31.4016230665045 
1598	 29.8977785809738 
1599	 28.2510542472406 
1600	 26.5703553505636 
1601	 26.6038255718332 
1602	 26.188152774769 
1603	 26.5530148921787 
1604	 28.7835188033577 
1605	 26.7989290229142 
1606	 26.2931571936825 
1607	 27.9844290133517 
1608	 27.5961151606079 
1609	 29.8274348408329 
1610	 31.0117539182574 
1611	 29.469745536739 
1612	 27.0633615052317 
1613	 23.7964968110888 
1614	 23.5694057320212 
1615	 23.1838633514929 
1616	 25.5274187554968 
1617	 28.9052873713228 
1618	 26.7364311759892 
1619	 26.8333319911628 
1620	 24.4819058674123 
1621	 20.6358446083393 
1622	 21.535974740011 
1623	 20.3712698930841 
1624	 19.9290241585225 
1625	 22.0146149800463 
1626	 20.9722035569992 
1627	 20.0858311278133 
1628	 23.8706940214557 
1629	 23.5533260582457 
1630	 21.4200568356982 
1631	 22.9918939730468 
1632	 21.8241566386661 
1633	 19.9394571393891 
1634	 18.744461472998 
1635	 18.2213138217748 
1636	 17.0867968669111 
1637	 15.3801106584813 
1638	 14.3723113537725 
1639	 14.3276180423769 
1640	 13.0926037034027 
1641	 12.8934271072059 
1642	 14.9540492421081 
1643	 15.9412943038285 
1644	 16.6377208334698 
1645	 16.9296631808782 
1646	 17.6369938601573 
1647	 17.1826651283488 
1648	 16.1439815176389 
1649	 13.9090379558718 
1650	 8.90618080573644 
1651	 6.78980333733415 
1652	 4.41463566585249 
1653	 4.13159313642343 
1654	 8.21714076935375 
1655	 9.55608680783736 
1656	 10.723946881209 
1657	 10.1540728963935 
1658	 6.95460489601882 
1659	 5.23283319277342 
1660	 2.4795612318961 
1661	 2.68164793359963 
1662	 4.73271914844192 
1663	 7.21983546965816 
1664	 12.9439518989383 
1665	 13.8726676792145 
1666	 13.0727865747807 
1667	 12.5090277182611 
1668	 8.85123101202966 
1669	 8.20128811537493 
1670	 9.62563475432891 
1671	 9.7187687460795 
1672	 10.2254647896834 
1673	 9.16897621453921 
1674	 6.69448195364609 
1675	 5.74296701506694 
1676	 3.95286509887686 
1677	 4.53749256937106 
1678	 7.61992668899716 
1679	 8.73727821873004 
1680	 10.3538298709352 
1681	 10.1405564783855 
1682	 8.04246446732066 
1683	 8.48587881498204 
1684	 8.6403402480182 
1685	 9.25010945491065 
1686	 10.0299612576512 
1687	 7.1685075717983 
1688	 7.07896494308954 
1689	 10.4645052638981 
1690	 11.1695021417481 
1691	 11.7784557549263 
1692	 12.313387949719 
1693	 10.3078357169559 
1694	 9.14530364278068 
1695	 9.72562030434826 
1696	 9.15011647826609 
1697	 6.64605702223082 
1698	 5.96631869782931 
1699	 6.34837207986175 
1700	 6.15964538778916 
1701	 6.55573491372585 
1702	 7.08237248277403 
1703	 7.06771918668441 
1704	 7.45622527842292 
1705	 8.72972118361939 
1706	 9.60901336121762 
1707	 9.59397936368567 
1708	 11.0306008721066 
1709	 14.156838417892 
1710	 15.2215829555866 
1711	 17.0569268202601 
1712	 16.2154901745957 
1713	 11.217566900255 
1714	 10.6062388048226 
1715	 10.0549300694206 
1716	 11.3704339866611 
1717	 16.9744806021174 
1718	 18.4192244380166 
1719	 19.277071681166 
1720	 18.6377571105564 
1721	 15.6523157567001 
1722	 13.7083352430434 
1723	 11.3608687180335 
1724	 8.23369323217023 
1725	 4.21785723267049 
1726	 1.03823107254081 
1727	 0.779635696600628 
1728	 4.00892169496135 
1729	 7.92761636492885 
1730	 11.0065558561873 
1731	 11.8618615788165 
1732	 5.78748706709992 
1733	 4.57112629173723 
1734	 5.04353358932873 
1735	 5.4838986381167 
1736	 11.3007270426121 
1737	 12.245314344754 
1738	 7.66957923566939 
1739	 6.2887007695339 
1740	 4.33815086125152 
1741	 3.47883867880196 
1742	 5.40542672120925 
1743	 6.2450937313939 
1744	 5.74753472593215 
1745	 6.53961449783809 
1746	 9.68210438909157 
1747	 10.053328980398 
1748	 9.5332466067911 
1749	 9.55956074984367 
1750	 6.0317105106412 
1751	 7.45166963525958 
1752	 12.5031571288531 
1753	 15.2996195791272 
1754	 20.653498353276 
1755	 20.7181601594359 
1756	 12.7138318644872 
1757	 12.6051429382452 
1758	 25.4056590451649 
1759	 28.5372971418182 
1760	 33.2794892299013 
1761	 28.9734415733928 
1762	 38.6035969958124 
1763	 25.8582971972516 
1764	 26.1878633163657 
1765	 39.9275024481587 
1766	 39.1013690072442 
1767	 28.1088794112109 
1768	 24.4444175356013 
1769	 20.6226659644207 
1770	 11.4741563922998 
1771	 0.371393446293471 
1772	-3.18756664638453 
1773	 1.06063095582627 
1774	 11.0632327431796 
1775	 15.2069714505311 
1776	 29.4043126810689 
1777	 37.304655746951 
1778	 42.7523769852388 
1779	 35.070589097623 
1780	 22.3663096303461 
1781	 17.6849245423456 
1782	 7.19621506490284 
1783	 3.88803741344738 
1784	 4.46414971497562 
1785	 19.8336230957408 
1786	 17.867419015594 
1787	 11.2261440565347 
1788	 9.60172453278479 
1789	 12.0054787644501 
1790	 19.7822727201763 
1791	 27.4431338799996 
1792	 23.9337913561894 
1793	 13.1564877612506 
1794	 8.00204745790436 
1795	 3.65124364866515 
1796	-1.64335129232374 
1797	-8.54980882371986 
1798	-10.1514396693375 
1799	-12.866393220423 
1800	-15.5229401625227 
1801	 1.18809290129636 
1802	 12.4950847810516 
1803	 15.229742348592 
1804	 13.7657899699684 
1805	 16.5729160239729 
1806	 14.0835632916621 
1807	 5.71808188068442 
1808	 17.4861149993089 
1809	 19.7364980960363 
1810	 19.1633042647253 
1811	 35.9007861346899 
1812	 44.2433719443192 
1813	 58.6742416646506 
1814	 59.8566891799116 
1815	 48.990859045174 
1816	 44.7578972097411 
1817	 38.4093655600147 
1818	 22.6689864711327 
1819	 28.0172557692791 
1820	 38.2083715913789 
1821	 41.1948516603543 
1822	 51.8718443884491 
1823	 46.9191516332727 
1824	 19.3140062583768 
1825	 14.3770465995902 
1826	 14.9987557972241 
1827	 12.3130084782879 
1828	 22.2707387421372 
1829	 31.1351203251795 
1830	 29.0553072549977 
1831	 11.1291796525752 
1832	 5.71123140788969 
1833	-2.60838430669687 
1834	-1.288319418835 
1835	 12.0855047067909 
1836	 16.9046305820781 
1837	 22.0062112922255 
1838	 28.1837630735374 
1839	 27.8873105447862 
1840	 37.1863007215577 
1841	 36.8767233142576 
1842	 38.5960263606721 
1843	 35.5524831361775 
1844	 17.8857606070721 
1845	 11.4985134475412 
1846	 8.29130594538431 
1847	 9.16322059399296 
1848	 8.4728756102664 
1849	 25.6011475430203 
1850	 47.1429997951246 
1851	 54.694578051711 
1852	 58.1471196749707 
1853	 61.0471658138106 
1854	 55.7753874552727 
1855	 29.539529243763 
1856	 25.449185672598 
1857	 35.2521139161342 
1858	 25.2580790848664 
1859	 27.9743629356125 
1860	 37.007508286609 
1861	 33.8185559477652 
1862	 38.170895086683 
1863	 40.5168063155263 
1864	 45.1273801699771 
1865	 45.9306851072335 
1866	 45.3139482320145 
1867	 44.4278568143742 
1868	 45.8737486395126 
1869	 39.6000648418608 
1870	 32.1489425638093 
1871	 21.8323898614761 
1872	 9.23306345912155 
1873	 6.35382101647304 
1874	 2.31702690069249 
1875	-0.436523005282224 
1876	-1.03304003916429 
1877	-1.43349943412466 
1878	 1.09770453196772 
1879	 11.2029148381318 
1880	 20.6748648575643 
1881	 33.3406797359414 
1882	 41.2683209111753 
1883	 42.0902803775492 
1884	 41.8568942582203 
1885	 33.4172771763767 
1886	 30.2330404262545 
1887	 30.2434594538406 
1888	 32.9030335554683 
1889	 32.9447892892141 
1890	 40.6697512256074 
1891	 48.0065986333997 
1892	 48.962275008277 
1893	 61.2358640157311 
1894	 78.0990631580678 
1895	 77.9633358899101 
1896	 73.8056694022462 
1897	 67.7478043530437 
1898	 46.2056396406078 
1899	 38.4649304425921 
1900	 35.4582870972986 
1901	 31.6846569730577 
1902	 43.9098007002895 
1903	 48.209820941207 
1904	 41.0592356090031 
1905	 41.1139163325551 
1906	 38.3368503114031 
1907	 30.2239494578297 
1908	 30.2687314213533 
1909	 45.1367231911334 
1910	 44.9660236674536 
1911	 38.6623622549551 
1912	 35.9151075715289 
1913	 24.5756931890199 
1914	 20.5910897627126 
1915	 28.6304389148613 
1916	 36.1929366825811 
1917	 44.7551139194389 
1918	 44.7763491422433 
1919	 42.1603674018158 
1920	 30.7002750304491 
1921	 25.5512668569535 
1922	 17.9319488556122 
1923	 16.1124976067097 
1924	 23.195411836151 
1925	 21.5622563475987 
1926	 17.8767039321656 
1927	 11.4227252236388 
1928	 5.58769802678552 
1929	 7.17928535041973 
1930	 6.93427671635067 
1931	 12.3047300378994 
1932	 15.4655193341516 
1933	 14.1349948936589 
1934	 17.6505730208383 
1935	 26.4235157079068 
1936	 32.2139310584584 
1937	 43.4233568870545 
1938	 46.4903471823989 
1939	 45.2658687265749 
1940	 38.7982238019668 
1941	 37.6677325085808 
1942	 33.1220296295209 
1943	 30.786106926972 
1944	 33.2150986371715 
1945	 34.4517497956892 
1946	 33.05306759798 
1947	 33.7369175830012 
1948	 39.1420664178921 
1949	 39.6885777632485 
1950	 36.1867160382829 
1951	 35.2507699208221 
1952	 31.1889033875916 
1953	 33.8518856823223 
1954	 31.446264652821 
1955	 29.3745206224577 
1956	 26.3467551728343 
1957	 19.7647608827035 
1958	 16.5802366490249 
1959	 15.8380215909235 
1960	 13.9052654252042 
1961	 13.3236587028254 
1962	 10.7154489718922 
1963	 7.76730487564949 
1964	 3.28761324321257 
1965	-2.48318835188636 
1966	-13.6135588145147 
1967	-12.9911860551759 
1968	-10.3009359535668 
1969	-2.89260833441253 
1970	 17.3553173648835 
1971	 27.3876029716623 
1972	 39.2333529486734 
1973	 41.9410848807483 
1974	 30.1253612562448 
1975	 31.5042213578536 
1976	 39.5286883619155 
1977	 39.9563224932785 
1978	 40.0554473721568 
1979	 44.8380424843188 
1980	 47.7171257838809 
1981	 40.2534493814604 
1982	 41.8454271890983 
1983	 52.3987354100657 
1984	 59.5953300078906 
1985	 68.7468024186008 
1986	 71.3843166995292 
1987	 77.801697729522 
1988	 73.163871140552 
1989	 46.6343939782584 
1990	 39.1582381510183 
1991	 34.4449114202825 
1992	 35.1212595050284 
1993	 44.4934817964755 
1994	 59.6533712501396 
1995	 66.1999530914448 
1996	 71.8756074904666 
1997	 69.9869276459631 
1998	 57.4144101294667 
1999	 53.8165541838475 
2000	 47.4662005998369 
2001	 44.3193701550581 
2002	 52.8931504080523 
2003	 52.3667382576006 
2004	 47.4742604712217 
2005	 39.6821684903676 
2006	 27.5176000528756 
2007	 23.706635570487 
2008	 20.2399796223239 
2009	 14.9980766917825 
2010	 11.7367909758955 
2011	 10.1280043340466 
2012	 6.92509586234075 
2013	 1.59515179533704 
2014	 1.12195953688162 
2015	 2.03009903993211 
2016	 5.02246968353536 
2017	 15.9729232921275 
2018	 21.5520569279741 
2019	 21.7112825352253 
2020	 29.3586926450711 
2021	 39.667170658281 
2022	 41.227551873544 
2023	 46.6604721517131 
2024	 37.5403955843813 
2025	 31.4205572926928 
2026	 12.2040169831722 
2027	 10.4065214156108 
2028	 21.2082952441322 
2029	 25.3786458929258 
2030	 34.1661179574795 
2031	 40.3390170894612 
2032	 44.6102635425948 
2033	 41.8053231629237 
2034	 43.5485592560002 
2035	 48.428044839191 
2036	 47.6864394608416 
2037	 45.4586061976278 
2038	 46.2820611736215 
2039	 42.51301153425 
2040	 29.5773876954543 
2041	 25.5927268225462 
2042	 25.7681572735332 
2043	 29.3172002552455 
2044	 28.951928476538 
2045	 39.3317051521303 
2046	 36.8799092811237 
2047	 17.0269297370166 
2048	 10.8739483138375 
2049	 10.0285434743633 
2050	 1.99293031921437 
2051	-1.60603437572138 
2052	 15.8413769358317 
2053	 28.3467346739475 
2054	 33.6889656085976 
2055	 39.0896633856701 
2056	 30.8695032788803 
2057	 26.3955068641884 
2058	 29.9814554818278 
2059	 33.9313406348106 
2060	 49.859832503103 
2061	 56.4922258581387 
2062	 61.1740729892024 
2063	 59.1962786349176 
2064	 50.7326111798397 
2065	 42.6617640066158 
2066	 34.9428801370406 
2067	 27.6886249693416 
2068	 30.3544758163408 
2069	 30.4289870961821 
2070	 31.4423249772441 
2071	 39.5196140635715 
2072	 39.1042672179696 
2073	 37.0597043041992 
2074	 30.4169173932751 
2075	 17.873716898121 
2076	 15.3432249015841 
2077	 19.7318328196933 
2078	 24.4221309927969 
2079	 37.6256012083086 
2080	 40.4672801098188 
2081	 42.3034596848147 
2082	 33.7025868273088 
2083	 21.5232164658594 
2084	 19.8445914486985 
2085	 23.5820072231748 
2086	 37.3113240195948 
2087	 46.6809714661538 
2088	 57.8357129261399 
2089	 66.8393841636623 
2090	 66.7475722851525 
2091	 66.770965429643 
2092	 60.7097584777475 
2093	 55.8510663366214 
2094	 40.0301250926084 
2095	 28.0075354879291 
2096	 15.9085344506581 
2097	 11.8032524385491 
2098	 5.89680154094454 
2099	 12.6120946934666 
2100	 28.1896462619888 
2101	 33.094818855348 
2102	 38.4898621057199 
2103	 36.3312128314617 
2104	 31.4072050592821 
2105	 31.5368239607291 
2106	 22.8553765719804 
2107	 19.3556593423831 
2108	 22.0329119664316 
2109	 23.5608021095528 
2110	 28.967963383341 
2111	 29.5305950829094 
2112	 23.3903025635466 
2113	 13.5517392618301 
2114	 11.2610966040421 
2115	 19.1417007976513 
2116	 17.7682557279395 
2117	 18.1371032556851 
2118	 14.5134665973076 
2119	 2.81622789462568 
2120	-14.5262560088576 
2121	-11.7985681705408 
2122	-10.5889975510572 
2123	-2.95898197244056 
2124	 4.0556104231305 
2125	 0.737728782791162 
2126	 0.990201270742903 
2127	-4.78883322654993 
2128	-4.91287653555279 
2129	-4.21768942772984 
2130	-14.5317232748268 
2131	-18.1369400530827 
2132	-15.0205792257934 
2133	-11.8660896128396 
2134	-1.8738546426249 
2135	 5.93641874739833 
2136	 12.7262332705689 
2137	 14.714312936094 
2138	 16.6352510051263 
2139	 17.0377009555615 
2140	 11.5379881355739 
2141	 16.4563365286856 
2142	 16.5843632569322 
2143	 12.4371049835478 
2144	 7.64303252182723 
2145	 3.19017756972695 
2146	 0.672377634523053 
2147	-2.05684859142821 
2148	 0.106261759901478 
2149	-6.9220396169473 
2150	-10.8981873348534 
2151	-3.16845312710934 
2152	 5.68701653075388 
2153	 27.9734876870948 
2154	 57.3727945969033 
2155	 72.127533605386 
2156	 81.550005814977 
2157	 76.0474762231845 
2158	 60.6565800936505 
2159	 21.5168626215625 
2160	 4.43995517765839 
2161	-17.8315423862328 
2162	-26.1190996919342 
2163	-17.3774940858297 
2164	-14.8133986317272 
2165	-15.7605062122227 
2166	-10.0214506676167 
2167	-9.27451731962188 
2168	-8.64530861188549 
2169	-2.76353640499736 
2170	-3.56858677782695 
2171	 4.50481505296974 
2172	 11.3664337887599 
2173	 15.2633342600345 
2174	 22.3479735596756 
2175	 14.4751313145565 
2176	-4.23541185901825 
2177	-16.0450566960598 
2178	-26.2986175166657 
2179	-30.2287223092465 
2180	-14.1371654911118 
2181	-0.367147713636684 
2182	 3.24796331717717 
2183	 4.33595490038924 
2184	-4.55476466943345 
2185	-3.72138573421662 
2186	-0.709255620186698 
2187	 5.86712166450184 
2188	 22.0942490599743 
2189	 28.9567717463401 
2190	 30.3410491820148 
2191	 20.9353634571039 
2192	 12.2629849863297 
2193	 9.67883862598214 
2194	 4.30412184781047 
2195	-3.26053767207583 
2196	-6.64846319608542 
2197	-12.3778633579629 
2198	-19.6461376516408 
2199	-19.31461233254 
2200	-25.3661990866754 
2201	-28.2985984605462 
2202	-26.6731504191989 
2203	-19.8769960155716 
2204	-9.41193778643717 
2205	-7.81982839881081 
2206	 2.77209052587923 
2207	 6.19816407779735 
2208	 10.6697351796862 
2209	 16.9804502378169 
2210	 15.5481616720456 
2211	 5.09494353698533 
2212	 1.81176654912654 
2213	-0.207079200993641 
2214	-2.93836836332778 
2215	-5.10627841631583 
2216	-4.01972220493365 
2217	-9.53820403188149 
2218	-8.89091601542798 
2219	 2.51491680718474 
2220	 6.26973933205085 
2221	 5.22311219758244 
2222	 5.20067149352289 
2223	-0.574638380465054 
2224	-0.832398233336685 
2225	 5.02215626885798 
2226	 18.3299870736361 
2227	 18.2536570556823 
2228	 14.9625932150083 
2229	 10.2745481391665 
2230	-3.75525173484261 
2231	-6.16723378131175 
2232	-7.2212537880697 
2233	 0.537701751267126 
2234	 8.78436886668901 
2235	 9.22417436004393 
2236	 16.6424980642046 
2237	 14.7153733033265 
2238	 6.13324310892925 
2239	 7.65132352068945 
2240	 8.71431583321498 
2241	 5.24588325748966 
2242	 7.26823296662006 
2243	 7.44046483829386 
2244	 5.98269073989993 
2245	 6.26465311612764 
2246	 9.00852432061331 
2247	 5.46342776650292 
2248	-5.04989192510456 
2249	-10.6167754478184 
2250	-17.398957556063 
2251	-13.5892468564507 
2252	 2.37400881605389 
2253	 16.8887738665378 
2254	 33.8385943383585 
2255	 41.373904223697 
2256	 51.4467495057459 
2257	 44.4136696952697 
2258	 34.6256858301647 
2259	 29.8668908230215 
2260	 18.4054478251035 
2261	 12.1241954110585 
2262	 6.9412754850941 
2263	 13.9591238996814 
2264	 7.59611893818814 
2265	-5.76709727212008E-02 
2266	-3.35314681779174 
2267	-17.1062499724344 
2268	-9.8469335119595 
2269	 0.404051319287962 
2270	 6.72020088177254 
2271	 9.77861236020087 
2272	 2.21786514936825 
2273	-2.88472319912796 
2274	-1.46178038792884 
2275	 9.19621123863827 
2276	 16.8129506268203 
2277	 22.5978749180046 
2278	 16.680670994294 
2279	-5.85020767354981 
2280	-13.0502211038884 
2281	-15.2038898688908 
2282	-17.7768063379248 
2283	-0.602563639405343 
2284	 7.82117268945259 
2285	 9.11907947704327 
2286	 14.7126154694526 
2287	 21.3362807186149 
2288	 20.6069752641469 
2289	 18.6548825945951 
2290	 17.1390964973803 
2291	 10.9974846544139 
2292	 11.2179574831103 
2293	 14.9560073909743 
2294	 18.3975801433474 
2295	 25.2954100054359 
2296	 25.1101927235274 
2297	 24.9007843919209 
2298	 18.1839706421654 
2299	-0.763753851442728 
2300	-7.63971281688631 
2301	-12.2322882665296 
2302	-12.9008906908984 
2303	-6.08131350989187 
2304	-1.60746772994039 
2305	 4.69300751614721 
2306	 5.9326958530607 
2307	 5.85322398049339 
2308	 4.81674030753129 
2309	-0.192567582278354 
2310	-2.60238108920761 
2311	-4.70907358795878 
2312	-3.43890886733841 
2313	-0.396650275814005 
2314	-1.41748918430442 
2315	-1.90068614498237 
2316	 0.337111250423364 
2317	-0.145278454805112 
2318	-4.63679314665696 
2319	-3.46930800343348 
2320	-3.18283577748371 
2321	-5.13680920172959 
2322	 1.51327082563637 
2323	 4.87952697309459 
2324	 9.33373828245573 
2325	 14.9225832618909 
2326	 18.9701211270909 
2327	 18.7977936280628 
2328	 9.82449205936365 
2329	 4.7632144312472 
2330	-1.66958325034022 
2331	-11.2366672452049 
2332	-6.00461091963327 
2333	 2.14427185945889 
2334	 3.9805594195997 
2335	 11.4509010042439 
2336	 14.7976703350372 
2337	 12.379193798564 
2338	 13.812424419354 
2339	 13.1524758107527 
2340	 3.75021390516318 
2341	-7.42351454213074 
2342	-16.241056035177 
2343	-20.5431676899157 
2344	-10.5395841197391 
2345	 4.42807190771638 
2346	 19.2805855478913 
2347	 30.3260238937418 
2348	 29.6095411961662 
2349	 23.0797488925888 
2350	 8.7907757155147 
2351	-9.39566670617621 
2352	-27.8524136141489 
2353	-41.6357786326252 
2354	-44.7625072498852 
2355	-35.0576641452426 
2356	-24.8632709906775 
2357	-14.5669177731429 
2358	-3.00513484793705 
2359	-5.50443189395299 
2360	-4.1553480663356 
2361	-8.60118700223638 
2362	-16.6743210270598 
2363	-15.305647420781 
2364	-14.774769399174 
2365	-4.59235100100822 
2366	 4.59343897611996 
2367	 9.16382658510309 
2368	 13.4067248619864 
2369	 8.2688212345437 
2370	-1.02908695405388 
2371	-12.4210227096841 
2372	-26.7316047321262 
2373	-28.5786660499891 
2374	-29.9474553813932 
2375	-27.7765207897406 
2376	-15.760319274297 
2377	-20.8571080247235 
2378	-21.0032430870718 
2379	-23.4156201243988 
2380	-30.8973239300528 
2381	-23.309132395153 
2382	-17.8746980057793 
2383	-12.9838608974425 
2384	-5.65724957806367 
2385	 3.99586341739818 
2386	 10.201847607581 
2387	 24.2707285739394 
2388	 33.1233312521461 
2389	 28.0243130412779 
2390	 31.5295221086754 
2391	 22.5800678208341 
2392	 15.4731224228129 
2393	 14.2289437556231 
2394	-1.24945412212557 
2395	-11.553349338389 
2396	-18.6369934109882 
2397	-15.2714507827171 
2398	-3.39114877640897 
2399	 3.96337821937235 
2400	 2.14920620745811 
2401	-10.2356127785766 
2402	-22.2599915653876 
2403	-38.2218208770791 
2404	-41.2996454384682 
2405	-39.4170498344651 
2406	-42.9771515594313 
2407	-36.541620225477 
2408	-27.6619567643215 
2409	-18.8494852051659 
2410	-13.242949578356 
2411	-5.88783410083301 
2412	-0.840234283531758 
2413	 3.92442585702342 
2414	 8.30946596085263 
2415	 0.583978862031908 
2416	-3.736026583877 
2417	 0.261236914482547 
2418	 9.78314688986265 
2419	 23.2694363941937 
2420	 27.8961176012688 
2421	 13.7801208460085 
2422	-5.93349226989548 
2423	-9.46379232690776 
2424	-4.58051733144545 
2425	 7.36031487577094 
2426	 19.953712377177 
2427	 11.7017278120439 
2428	 5.01997988679861 
2429	-3.80370527693366 
2430	-13.2456239719346 
2431	-9.55516959283013 
2432	-15.1032233596259 
2433	-23.4619772622353 
2434	-27.5641197514393 
2435	-29.9931129103425 
2436	-34.410806816796 
2437	-33.7576366634883 
2438	-31.7811409018687 
2439	-33.6655872785407 
2440	-25.7171932303007 
2441	-14.5816263876467 
2442	-10.3280914546716 
2443	-4.53331019287098 
2444	 0.842893075876707 
2445	-2.68534628698825 
2446	 9.05867018169807 
2447	 14.97745127306 
2448	 12.8051597827918 
2449	 17.0266951205283 
2450	 11.2906952865716 
2451	 14.1223961450847 
2452	 10.6510331750653 
2453	 15.1312840630503 
2454	 19.9216775646148 
2455	 8.37433571679355 
2456	 4.66769815318977 
2457	-3.59609223703014 
2458	-10.4887281413891 
2459	-19.2512269532199 
2460	-15.9684326666006 
2461	-8.63837409409329 
2462	-6.27902899382849 
2463	 12.1530443746728 
2464	 14.1992027479506 
2465	 0.38293417930294 
2466	-9.14747816571296 
2467	-31.2141962982229 
2468	-30.2231729074585 
2469	-32.3977183475726 
2470	-30.7520703221143 
2471	-28.434847915603 
2472	-26.7245693642543 
2473	-18.1390244555059 
2474	-8.89234154770729 
2475	 1.63669346608939 
2476	 6.62790507112684 
2477	 2.65700381583749 
2478	-7.20965262460328 
2479	-15.1022246720875 
2480	-15.9266210438538 
2481	-12.6615486058428 
2482	-12.5105581199848 
2483	-9.94265285277156 
2484	 0.134976222523696 
2485	 7.60379898822688 
2486	 22.0422222435444 
2487	 33.8383502016574 
2488	 33.1180566763514 
2489	 26.4287709115711 
2490	 11.7027844043375 
2491	 1.66969645942653 
2492	-6.19207780973671 
2493	-15.7925989676955 
2494	-16.0211812242258 
2495	-14.2957488031208 
2496	-18.9888617623301 
2497	-15.6219233639726 
2498	-12.1134864700143 
2499	-14.9715136273573 
2500	-6.17408818458266 
