Wavelength	3mm_blackPC00000.asd
350	 0.845730350890281 
351	 0.287342017098681 
352	 0.809148562190707 
353	-0.526415043056264 
354	 9.79774386310446E-02 
355	 1.60058481817994 
356	 2.27425136166835 
357	 0.910776062626403 
358	-0.364408589701241 
359	-0.220651319939155 
360	 1.92188091829362 
361	 2.78005199436274 
362	 1.96700964871445 
363	 0.264435325595507 
364	-0.283678970651679 
365	-0.349862241330719 
366	 0.07021998662189 
367	 2.06551476122583 
368	 1.73378958515919 
369	 0.155755612464509 
370	-0.243370534635495 
371	-0.839607524339507 
372	-0.80034251744833 
373	 8.82189335060672E-02 
374	 0.679157066938315 
375	 0.428753911416748 
376	-0.277413660657956 
377	-0.507023557938405 
378	-0.084560251562197 
379	 3.56164716780447E-03 
380	-0.655000487531754 
381	-0.19764417107134 
382	-0.298732012484942 
383	-0.303824343746569 
384	 2.35503923130227 
385	 1.53192657708344 
386	-0.343164912859639 
387	 0.176713199559262 
388	-0.117160660620447 
389	-4.23390425858588E-02 
390	 0.753500596766697 
391	 1.14566888539476 
392	 0.829898830763325 
393	 0.519311921379466 
394	 1.13732874370803 
395	 0.556761761727358 
396	-0.302862061600465 
397	-0.625844618571043 
398	-0.84061156330681 
399	-1.10485796857466 
400	-1.0713446392947 
401	-0.036530226391818 
402	-7.13435723795292E-02 
403	-0.283971065163342 
404	 0.499009370141745 
405	 1.34950221111258 
406	 1.3470993558392 
407	 0.363923568165541 
408	-0.689232567420759 
409	-0.619167883137224 
410	 0.334593491429906 
411	 1.19789093854629 
412	 1.48586220936157 
413	 1.38150700790925 
414	 1.22823882479288 
415	 1.60103797624745 
416	 1.06555623085387 
417	-0.083494629132355 
418	-1.58278850806911E-02 
419	 0.200043285517733 
420	 0.377302110051558 
421	 0.448995642440451 
422	-0.186459259087049 
423	-0.976772808589641 
424	-1.26673398381192 
425	-0.195173613682405 
426	 1.40614351300499 
427	 2.10439667061885 
428	 0.313988967110649 
429	-0.420590139542706 
430	-0.809482452547003 
431	-1.61158519752526 
432	-0.390851652545769 
433	 0.132182875918692 
434	-0.466513494168636 
435	 0.46780922960407 
436	 0.68847265091544 
437	-3.28975450679078E-02 
438	-1.01869498220037 
439	-0.528874535759368 
440	 0.258807467842574 
441	 0.439768621877354 
442	 1.10924896913929 
443	 0.228925925626975 
444	-1.56968935711162 
445	-1.20784499480658 
446	-1.08978242619405 
447	-1.08781138700857 
448	-0.62949024334282 
449	-1.00303577091246 
450	-0.806627046889672 
451	 0.240060084899017 
452	-0.646092099801523 
453	-0.316646756679283 
454	 0.894849716994228 
455	 0.421179540037652 
456	 0.434614682562181 
457	 0.186643164744314 
458	-1.1579120604067 
459	-1.73682078667887 
460	-1.17985351769706 
461	 3.37517614998111E-02 
462	-0.102323921546373 
463	 0.487043735117107 
464	 1.38168193092667 
465	 0.903710444392337 
466	-0.841519808586766 
467	-1.76189864715835 
468	-0.425486390419264 
469	 0.521926354556421 
470	 0.408075533036113 
471	-0.644320077538241 
472	-1.49168833233019 
473	-1.9039051909064 
474	-1.77753407846466 
475	-1.15103938375443 
476	 0.190869040934864 
477	 0.827958385579234 
478	-8.82636058235732E-02 
479	-0.522045564136826 
480	-0.612630031100552 
481	-0.712211394955625 
482	-1.55410550961688 
483	-1.09779708683065 
484	-0.288555807115021 
485	-1.10009805706922 
486	-0.538882113270684 
487	 0.240594033907944 
488	-1.29747788033858E-02 
489	-0.671275749180617 
490	-1.09041338626387 
491	-1.34122023418887 
492	-2.59172202841003 
493	-1.57853452694641 
494	 0.447790032348 
495	 0.504879239705314 
496	 0.130443854136179 
497	-0.769959746542029 
498	-2.00710853370646 
499	-1.73663219039858 
500	-1.0537963212183 
501	-0.522966578392705 
502	 8.6632469358297E-03 
503	-0.556177822348141 
504	-1.63167921883153 
505	-1.97711223776061 
506	-2.27423084040422 
507	-2.88060483413138 
508	-3.35866494541336 
509	-0.141265297139865 
510	 0.710719010024498 
511	-1.86818806269428 
512	-2.37112350117007 
513	-2.06410607396168 
514	-1.21619774612085 
515	-8.85417444383335E-02 
516	-0.623328196908049 
517	-1.42133580955067 
518	-1.23797401061596 
519	-1.71301184287429 
520	-1.07096969328667 
521	 0.219964465768545 
522	-2.01874476062827 
523	-1.77656496844757 
524	 4.75490149528039E-02 
525	-0.480723284654007 
526	-1.48931205180553 
527	-2.04495952402851 
528	-1.7053746163931 
529	-1.36215378622851 
530	-1.11144488981107 
531	-1.02137028592921 
532	-1.13761834865782 
533	-2.00283716906619 
534	-2.51621863563097 
535	-0.889355081448552 
536	-1.49059904444806 
537	-2.67726614434418 
538	-2.25255524351142 
539	-1.41263281633543 
540	-1.58489447634736 
541	-2.87270767346899 
542	-3.06744988539797 
543	-2.33572142821296 
544	-1.53692333847702 
545	-2.06773785998346 
546	-1.16973778343429 
547	-0.384776750545797 
548	-1.42034778769515 
549	-0.922367631609635 
550	-0.949698106329516 
551	-2.04174511904666 
552	-0.571937844903261 
553	 7.74616996144321E-03 
554	-0.918701339459218 
555	-2.00707537107602 
556	-1.88425239424952 
557	-0.987000504309825 
558	-0.315291343368077 
559	-0.076505796756581 
560	-0.398774771242686 
561	-1.23665743622759 
562	-2.44776382641597 
563	-2.30050807305621 
564	-1.05035625661836 
565	-0.866756499034984 
566	-1.17698470755376 
567	-1.83112188256175 
568	-2.59970857967964 
569	-2.16088158395523 
570	-2.02795044577327 
571	-2.92293030180471 
572	-2.07557698179932 
573	-1.22547905109525 
574	-1.04051093317457 
575	-0.999841109159691 
576	-1.05412230183945 
577	-1.76873869105515 
578	-3.64960817349947 
579	-2.83411891148959 
580	-1.64915323663171 
581	-2.19654095740665 
582	-1.55209848996371 
583	-2.0924584329567 
584	-3.83212885788632 
585	-2.82841372879126 
586	-2.10462098341828 
587	-1.81424983043001 
588	-0.828679176057989 
589	 0.338085423933089 
590	 0.812677373188691 
591	 2.56330988810491E-04 
592	-1.25280485385768 
593	-1.68582649177947 
594	-1.12967275725141 
595	-1.49630147374706 
596	-1.94022398669842 
597	-2.14036048816144 
598	-2.00295859631324 
599	-1.08105573196535 
600	-0.616705314735638 
601	-1.67231743350127 
602	-1.14266044448157 
603	-0.499658098519961 
604	-1.02673098305156 
605	-3.09493103995381 
606	-3.23109154300229 
607	-1.51987796377744 
608	-1.32237947613654 
609	-2.43515109050217 
610	-3.06914691106661 
611	-1.4649114004809 
612	-2.89614693499621 
613	-3.67367061519311 
614	-1.42154623543418 
615	-0.941362397933995 
616	-1.41403995734976 
617	-2.05977231926977 
618	-2.03333581350769 
619	-1.8173172707745 
620	-1.10904046079515 
621	 0.417702980393365 
622	-0.576226547076064 
623	-2.11087447226214 
624	-2.12682639470666 
625	-1.99705276743511 
626	-2.24575366004274 
627	-2.64584122670565 
628	-1.66297416454 
629	-0.587877235019314 
630	-0.12780307127346 
631	-0.730956200259135 
632	-1.4803860554472 
633	-1.93705643003741 
634	-1.93396845278242 
635	-2.04106942549509 
636	-1.87440285054788 
637	-1.46066023999885 
638	-1.82975217617694 
639	-2.3119120390367 
640	-2.42317406611507 
641	-1.74267090718306 
642	-1.91169667796665 
643	-2.17586541418664 
644	-1.49866751949875 
645	-2.0222277438497 
646	-2.89338770101474 
647	-3.20711197390972 
648	-2.47616022109101 
649	-2.20332505215487 
650	-2.30019996793358 
651	-1.02761207768127 
652	-2.27270558564465 
653	-3.90892987458831 
654	-2.2423740344821 
655	-1.08678507866784 
656	-0.812964916856973 
657	-1.11336058988441 
658	-1.02824110251294 
659	-1.80459031604341 
660	-3.22163448738064 
661	-3.12573976389666 
662	-2.35957850361485 
663	-1.4080977090097 
664	-0.747258855542609 
665	-1.06141782009095 
666	-0.96464719622041 
667	 0.094229585834363 
668	-2.52089058182755 
669	-3.2393066093484 
670	-0.898043570764945 
671	-2.02932036040584 
672	-2.02782388940394 
673	-1.16240701932533 
674	-1.97512901212129 
675	-2.1474759077421 
676	-2.40228089350788 
677	-3.36896598276755 
678	-1.63180142276384 
679	-1.63682322295464 
680	-4.31682171940501 
681	-2.74470155936523 
682	-2.01547429023886 
683	-2.78595122750884 
684	-3.01424573396846 
685	-2.06278258354017 
686	-0.986399497829069 
687	-1.11332262725511 
688	-2.04221405490342 
689	-2.86910085634135 
690	-2.93038278365686 
691	-1.8719878421464 
692	-1.96204004638754 
693	-2.66292840568388 
694	-1.01164868050286 
695	-1.05490023125092 
696	-1.75885615100662 
697	-0.993888006624505 
698	-0.996493657123574 
699	-0.466259026585889 
700	 0.629879909642513 
701	-2.55854977286253 
702	-3.35424979138824 
703	-1.01854626611581 
704	-0.556024615617523 
705	-1.41559405654328 
706	-1.99013687156964 
707	-0.619777219700266 
708	-0.896844697214421 
709	-2.09611809736541 
710	-3.10291402093259 
711	-3.50290066491335 
712	-2.70321531042639 
713	-1.65017577378908 
714	-3.32972313722681 
715	-2.98181170735998 
716	-1.46360848480978 
717	-1.62273477767617 
718	-2.56276557224198 
719	-2.90649936717927 
720	-2.01076562182938 
721	-1.82341138200247 
722	-1.47862492956122 
723	-1.2537962839247 
724	-3.10821381249674 
725	-3.29678977255512 
726	-2.11851446718241 
727	-1.54252730342217 
728	-1.48700310871754 
729	-1.42903719592043 
730	-1.23900967841408 
731	-2.82178278944722 
732	-2.97445631485135 
733	-1.36694046578223 
734	-1.58185912070159 
735	-1.54907338735859 
736	-1.15848095461215 
737	-1.12621762044376 
738	-3.22427119577906 
739	-4.08048532956119 
740	-1.76380669409399 
741	-2.43568251564358 
742	-1.96853050249021 
743	-0.059745418497221 
744	-2.05219767643219 
745	-0.990299131734202 
746	 0.942298364305389 
747	-1.76345752424424 
748	-3.82016253548674 
749	-3.98489514059911 
750	-2.6120621554469 
751	-3.17788905107084 
752	-2.99121411762841 
753	-1.60482261382534 
754	-1.57370140475945 
755	-1.32391512175825 
756	-1.38235901024762 
757	-2.78504828845474 
758	-2.83772492063305 
759	-2.72265149754515 
760	-3.35739927983543 
761	-2.74569852803327 
762	-2.35610415670555 
763	-2.27205141998664 
764	-0.772334326868319 
765	-1.6347329197759 
766	-3.27810024291557 
767	-2.4181607468322 
768	-1.1577644768828 
769	-0.702728156987842 
770	-1.43881067961466 
771	-1.86488951976968 
772	-2.11837509733991 
773	-2.09978815950242 
774	-1.45265434856661 
775	-1.54317791438723 
776	-1.47377383378486 
777	-0.134607974601754 
778	-1.24552023914959 
779	-2.47808425153344 
780	-2.12921565126116 
781	-1.38563771620625 
782	-1.76515521626648 
783	-3.02599330413768 
784	-3.37675645881906 
785	-1.57026758013356 
786	-0.503262095700437 
787	-2.87890875042509 
788	-2.32588759623427 
789	-2.28312649632364 
790	-3.89338681071934 
791	-1.72394069704269 
792	-1.02061398384201 
793	-2.20836243549445 
794	-2.81668063886867 
795	-2.7713615241123 
796	-2.32077438136846 
797	-1.79063268694991 
798	-0.94358795615658 
799	-1.13253308497276 
800	-2.18736166268498 
801	-1.25157218089072 
802	-2.08301362539566 
803	-2.7410477941151 
804	 0.508389075790326 
805	-1.14301432318354 
806	-3.64284976132732 
807	-3.09729866708193 
808	-2.77803897429024 
809	-3.22559415821533 
810	-3.77755176041927 
811	-2.36067752368027 
812	-1.99489654404105 
813	-2.5968139973622 
814	-2.93580574426922 
815	-1.51194376942892 
816	-0.409580764729084 
817	-0.857551983293178 
818	-1.50873010646338 
819	-2.53264475754386 
820	-3.4293837436374 
821	-3.2720047110584 
822	-1.54973689545312 
823	-0.684752045595035 
824	-2.29955591932056 
825	-1.69848650406604 
826	-0.723406913279759 
827	-0.725232781515894 
828	-2.34694325252324 
829	-1.37193901637252 
830	-1.63287259771265E-02 
831	-2.46405136721841 
832	-3.42430080972278 
833	-2.73164577930238 
834	-1.34544159022864 
835	-1.20065580325948 
836	-1.99559046666702 
837	-2.82083913779247 
838	-2.21691391691929 
839	-1.75696697083716 
840	-1.50940334794034 
841	-1.36124250105963 
842	-2.31692533131069 
843	-2.62438998484161 
844	-1.90797623869803 
845	-2.08493143885408 
846	-1.75158244377002 
847	-1.55532022683016 
848	-2.60934481753534 
849	-2.13729571665101 
850	-1.71050918192073 
851	-2.45728311342675 
852	-3.07999533009258 
853	-3.14572163047283 
854	-2.54891772555985 
855	-1.51428746209678 
856	-1.00216312302663 
857	-1.32790761054491 
858	-2.21218397755618 
859	-1.79091971607151 
860	-1.46822061948226 
861	-1.577311373256 
862	-0.912017807065406 
863	-1.66240194052305 
864	-3.12807540339625 
865	-3.64991836789748 
866	-2.78453858818418 
867	-1.20464186867123 
868	-2.29369630568297E-02 
869	-1.31888454950478 
870	-2.13502910759431 
871	-2.11902104637903 
872	-2.1652430153495 
873	-1.29896908820022 
874	-1.02892127308591 
875	-1.96586947744649 
876	-1.08906324099717 
877	 9.55648583367354E-02 
878	 0.273118810180958 
879	-1.6587790117412 
880	-1.91480101102173 
881	-1.91249006009308 
882	-3.11195933304031 
883	-1.7388089182318 
884	-0.891018601955408 
885	-1.37572960025217 
886	-1.13966585932323 
887	-1.95170839807406 
888	-2.73032306935405 
889	-2.15102830410525 
890	-2.68782138066359 
891	-2.57415118976451 
892	-1.59705185250754 
893	-2.55964837722553 
894	-1.94663533864774 
895	-0.569475848790405 
896	-0.772872491467298 
897	-2.828266268985 
898	-3.64481570180299 
899	-2.14063107399229 
900	-1.90969954014588 
901	-0.855300368099321 
902	 0.116170771720733 
903	-0.843873143613638 
904	-0.269242414716982 
905	-0.191614853418775 
906	-1.71678261681913 
907	-2.10555520055506 
908	-1.66513261537375 
909	-1.01881666859454 
910	-1.03533973866723 
911	-1.40994883645833 
912	-1.6710557498621 
913	-1.63327000281323 
914	-2.03063229432523 
915	-1.98993263511892 
916	-1.60678985305278 
917	-1.65131968161652 
918	-2.65362664145775 
919	-3.30336391771994 
920	-2.7365251092974 
921	-2.41947318189378 
922	-1.31467054366137 
923	-0.600861692348158 
924	-2.8189084092656 
925	-4.12494025450007 
926	-4.48094726558016 
927	-4.16422791321338 
928	-1.59589593290495 
929	-0.849881442433182 
930	-1.68243119665328 
931	-0.753538689160011 
932	-1.42592435968852 
933	-1.74810608891499 
934	-0.346580488049898 
935	-0.480999920715384 
936	-1.05509064116449 
937	-1.05147323179794 
938	 0.262912517418149 
939	-1.0392661220065 
940	-2.92105403511501 
941	-3.04131805265975 
942	-1.01186867580375 
943	-0.534204563687608 
944	-1.33446670123265 
945	-0.718677550012989 
946	-1.12350014996752 
947	-2.1148690246798 
948	-2.75201169418673 
949	-1.70916406906736 
950	-2.04479077050059 
951	-2.76939931256746 
952	-1.19241528687996 
953	-1.77798412787543 
954	-2.97956256625539 
955	-3.20512392599107 
956	-2.30585459255605 
957	-1.29533048986685 
958	-0.785253577051554 
959	-1.12872840878476 
960	-2.3308568968407 
961	-2.92229911480288 
962	-2.32412285825031 
963	-1.54539182075603 
964	-0.689432378122038 
965	-0.264982609224188 
966	 0.836253328828967 
967	-1.70882456848598 
968	-1.88851314786437 
969	-1.20379921570843 
970	 0.983962203041591 
971	 0.925438898012405 
972	 0.267301676603594 
973	 0.768588736970702 
974	 0.959158317148311 
975	 0.966405459341224 
976	 1.47688912020684 
977	 3.61409334621613 
978	 2.88912775207599 
979	 4.08252624617996 
980	 4.94487512244326 
981	 3.19543318256799 
982	 4.57782028084233 
983	 5.74977483993105 
984	 4.08353249964897 
985	 4.20289583544036 
986	 3.4230974913159 
987	-1.19557635026677 
988	-2.81564400387573 
989	-1.02358111464128 
990	-1.44492267765663 
991	-4.09035352373085 
992	-4.43268969228877 
993	-3.39440618898023 
994	-3.37752819313285 
995	-5.41317229553429 
996	-1.46891223757929 
997	 1.13941096766418 
998	 1.89490332439225 
999	 6.20203781186911 
1000	 5.27882873532383 
1001	 1.73103941667715 
1002	 3.84783661787279 
1003	 4.72815120065856 
1004	 4.5134990795631 
1005	 4.9865232953423 
1006	 5.45747953191471 
1007	 4.36319106400302 
1008	 1.70612941492381 
1009	 2.60268919297538 
1010	 3.07572855793383 
1011	 1.99373603727494 
1012	 0.924482549973571 
1013	-2.16768512635325E-02 
1014	-2.88827644144778 
1015	-3.25221980948633 
1016	-3.22607702276763 
1017	-1.12762136015195 
1018	 0.962542926275134 
1019	-0.800640903723644 
1020	 0.314702340306362 
1021	-0.568741044836122 
1022	-1.50092933181 
1023	 0.621941703249034 
1024	 7.21340744800231 
1025	 9.59518288674376 
1026	 8.5590174889057 
1027	 8.62306590579715 
1028	 5.60961614902609 
1029	 1.77390204650076 
1030	-0.416735957005624 
1031	-0.741120811686299 
1032	 0.186520697449583 
1033	-1.23376788112414 
1034	-0.34981725206613 
1035	 2.54015011847397 
1036	 1.56925743204773 
1037	 1.27164201161919 
1038	 3.81503891459812 
1039	 4.18579408776635 
1040	 4.63187409735386 
1041	 7.70234236795861 
1042	 6.29081437136439 
1043	 1.55604458315244 
1044	-2.67761736184335 
1045	-5.98119243512465 
1046	-8.73035343917756 
1047	-4.62649140313561 
1048	 1.59739959071661 
1049	 4.85907438860538 
1050	 6.05536325523447 
1051	 5.91184355880251 
1052	 2.92446195251211 
1053	 2.2352271057381 
1054	 5.57242198997718 
1055	 6.91096596709537 
1056	 10.0942426355194 
1057	 9.40491040606182 
1058	 2.91465655645198 
1059	 0.479936460313362 
1060	-1.77425893385888 
1061	-3.2201832969842 
1062	-4.96530487301584 
1063	-6.67520365100943E-03 
1064	 5.5169282322508 
1065	 5.22342423040654 
1066	 6.8425094883329 
1067	 6.98805462006536 
1068	 4.12692430482745 
1069	-6.38179639799669E-02 
1070	-4.65862950217271 
1071	-7.86383770052848 
1072	-10.1850120883748 
1073	-9.76948419509861 
1074	-9.06660563572599 
1075	-3.53635559920066 
1076	-3.72600418451397 
1077	-8.65209497150189 
1078	-8.38814531739468 
1079	-7.83311074597467 
1080	-7.10685071423131 
1081	-0.966484584622821 
1082	 0.336386324467062 
1083	-1.64266854833303 
1084	-4.21455034394611 
1085	-7.3894429059519 
1086	-7.5055412320019 
1087	-3.61963790977492 
1088	 1.32065237415832 
1089	 4.90725386066117 
1090	 5.88052009306907 
1091	 5.9613636577871 
1092	 1.3737421124195 
1093	 0.504086349473643 
1094	 1.67319497507505 
1095	 1.36200273145576 
1096	 0.957069280759101 
1097	 0.345499493231728 
1098	-1.81242599565866 
1099	-2.1773535629311 
1100	-2.13632206800428 
1101	-0.935575417088068 
1102	 4.07655086823709 
1103	 4.91996067404161 
1104	 3.86773846221642 
1105	 3.31114023168371 
1106	-0.15588132659414 
1107	-2.21026642811392 
1108	-2.17839503480767 
1109	-1.79630510441271 
1110	-0.429956025546876 
1111	 2.50298480780487 
1112	 3.43788451364196 
1113	 5.6470984069632 
1114	 4.75398368408753 
1115	-0.492655801136875 
1116	-1.56838393287137 
1117	-2.35738785542729 
1118	-2.40294952884169 
1119	 1.56596790286062 
1120	 1.96269181353173 
1121	-0.866247966538561 
1122	-1.05908830495209 
1123	-2.06191383552303 
1124	-1.49016265914468 
1125	 1.85324623360456 
1126	 5.82769530109538 
1127	 5.53760406293225 
1128	 3.44341786793818 
1129	 2.28270362790141 
1130	-1.28472475463048 
1131	-3.55245703809824 
1132	-4.91868657721436 
1133	-5.60533522102663 
1134	-6.94949531773174 
1135	-7.13114202192638 
1136	-5.51327842537399 
1137	-3.98024203182689 
1138	-2.31893955042435 
1139	-0.739749206376897 
1140	 3.01961133262843 
1141	 4.02359882553716 
1142	 1.59219512031487 
1143	 1.99765124184567 
1144	 2.23287730142747 
1145	 3.28018537092864 
1146	 8.74976253093097 
1147	 10.7255184478258 
1148	 11.219039039062 
1149	 10.0580580911667 
1150	 9.24419764175102 
1151	 6.79965722048967 
1152	 4.26081821248114 
1153	 0.82683083480901 
1154	-0.451251606759256 
1155	-3.04770903933886 
1156	-2.09395518789704 
1157	 4.81705468984153 
1158	 5.68572628321946 
1159	 4.49117554235062 
1160	 4.58671410900415 
1161	 1.66211099278568 
1162	 0.840553457087897 
1163	 2.94481817280664 
1164	 3.62016396537923 
1165	 3.52540718028593 
1166	 3.63009300178718 
1167	 4.28403580398903 
1168	 4.04187614390195 
1169	 4.28109727906167 
1170	 3.00846020638172 
1171	 1.45638892163023 
1172	-0.993264059688042 
1173	-2.55639939653251 
1174	-4.70732572579073 
1175	-5.76862229608332 
1176	-5.93187376329612 
1177	-6.18748102841116 
1178	-7.15495404005974 
1179	-5.962150800894 
1180	-2.57609140956165 
1181	-0.621753321169523 
1182	 3.05159475604382 
1183	 4.13586015837213 
1184	 2.94122107795669 
1185	 1.92834802710232 
1186	-0.343384823470955 
1187	-1.71447860689409 
1188	-4.88157844758167 
1189	-4.86111643936861 
1190	-0.967719330266346 
1191	-0.349529774690252 
1192	 0.95624955581835 
1193	 3.71135083271776 
1194	 3.87562951676975 
1195	 6.24691490793693 
1196	 6.10954679487914 
1197	 5.41375651986186 
1198	 5.54983643908673 
1199	 3.57426299422912 
1200	 3.80462340041079 
1201	 7.13694271508349 
1202	 8.62858076435918 
1203	 10.1246152588631 
1204	 9.86936443616548 
1205	 7.26238703200837 
1206	 7.61352212412395 
1207	 9.37843562912944 
1208	 8.84352504844015 
1209	 10.0976026279316 
1210	 8.92463407594863 
1211	 3.39716370507547 
1212	-1.08235135456116 
1213	-1.32319805067001 
1214	 0.425797159240756 
1215	 2.72821929202645 
1216	 3.80398754794453 
1217	 4.46364490741624 
1218	 2.30122378972338 
1219	-0.251327247527513 
1220	 2.58664514406432 
1221	 2.75578271717448 
1222	 2.47151620858191 
1223	 1.46461951923992 
1224	-1.19089453676241 
1225	-2.17807708195156 
1226	-2.08048965306238 
1227	-2.39813963379016 
1228	-1.85871461348147 
1229	-1.75466645361951 
1230	-4.42125385133104 
1231	-3.34647301396092 
1232	 1.86401583958676 
1233	 4.19643520847964 
1234	 7.33298573051281 
1235	 9.38308405273584 
1236	 10.1825427324145 
1237	 8.39392121251387 
1238	 7.44210997621236 
1239	 6.82627429019736 
1240	 7.51622245715355 
1241	 8.38201092685872 
1242	 8.95696361283574 
1243	 9.86807404585516 
1244	 9.4497832169728 
1245	 9.13962475260124 
1246	 12.2935975528422 
1247	 13.5236659141238 
1248	 11.0216115937469 
1249	 8.84026292182136 
1250	 6.3266658729312 
1251	 0.622869126335536 
1252	-0.721897330562541 
1253	-8.23993417297118E-02 
1254	-9.50136436443185E-02 
1255	 1.41879268492639 
1256	 2.90899607486175 
1257	 5.66528385903315 
1258	 7.7824149825698 
1259	 10.038081707142 
1260	 9.92782654322641 
1261	 8.230974861306 
1262	 6.16862488338979 
1263	 3.88004514242854 
1264	 4.677548688883 
1265	 5.57645683190862 
1266	 5.84753900266241 
1267	 4.14144546080396 
1268	 1.46156199650018 
1269	-0.847619841509679 
1270	-2.85123861317122 
1271	-2.30280468026204 
1272	-0.860311464412968 
1273	 1.62271169737588 
1274	 2.9851402421429 
1275	 2.29389070171306 
1276	 1.40538360216867 
1277	-1.01762570693191 
1278	-3.13294559141214 
1279	-3.22240348235332 
1280	-1.61202910836587 
1281	-0.360774118010766 
1282	 3.2857652390297 
1283	 4.72195757935862 
1284	 4.19828615526656 
1285	 4.6855699627046 
1286	 4.88519109353873 
1287	 4.60439845704263 
1288	 4.5908512701065 
1289	 5.08600854345408 
1290	 3.26497779318036 
1291	 0.958349395085534 
1292	-0.833854534210706 
1293	-2.091266487615 
1294	-6.30308901094152 
1295	-6.43768745586974 
1296	-3.18647570493054 
1297	-3.57059331145387 
1298	-0.70493791209232 
1299	 1.52757487564065 
1300	-1.09494839944309 
1301	-1.47895311793291 
1302	-0.987734175205303 
1303	-0.663527783481529 
1304	 1.91420397294766 
1305	 3.05582399645186 
1306	 3.21744350801318 
1307	 6.10016472925765 
1308	 7.53668335099017 
1309	 7.56716146540591 
1310	 9.59371253261315 
1311	 8.88486366485363 
1312	 8.05257784164701 
1313	 6.84858133433615 
1314	 5.91659946441293 
1315	 4.84946206628228 
1316	 3.58954148881228 
1317	 0.689710879754605 
1318	-1.35438892098931 
1319	-3.24814883137218 
1320	-4.53864915729984 
1321	-4.77624620763966 
1322	-1.96647713161958 
1323	-0.236387558521673 
1324	 1.80737287862305 
1325	 1.47595403541887 
1326	-1.08044595946456 
1327	-1.68046714440133 
1328	-4.9968184462167 
1329	-7.70088708484588 
1330	-4.68713342026441 
1331	-1.03528205972718 
1332	 1.43960882705822 
1333	 4.26569126110373 
1334	 7.30942285855738 
1335	 8.06124571744233 
1336	 7.32640777793757 
1337	 6.34150633614697 
1338	 2.89586747237331 
1339	-0.23559877581929 
1340	 1.97093431241554 
1341	 5.23057004131299 
1342	 7.70891302050358 
1343	 8.9935926133354 
1344	 6.52896483741107 
1345	 6.49569241255792 
1346	 7.66059730357736 
1347	 7.66295010691369 
1348	 8.98071687899339 
1349	 9.72837128837062 
1350	 10.1364119979951 
1351	 8.11432570584292 
1352	 4.58885784249061 
1353	 2.99806978447822 
1354	-0.282106389157762 
1355	-3.98016993413863 
1356	 0.877934038126374 
1357	 7.6195843475837 
1358	 10.7298994279916 
1359	 11.868347556269 
1360	 10.9637755528992 
1361	 6.5336391043536 
1362	 2.06019938744386 
1363	 5.13208951181018 
1364	 6.48248990561324 
1365	 3.35822561717584 
1366	 4.91087150348808 
1367	 3.61286192641746 
1368	-0.192805228103957 
1369	 1.25906940358528 
1370	 3.57064250115871 
1371	 4.9785741896577 
1372	 6.41610624672312 
1373	 8.85044040634943 
1374	 9.64102315556077 
1375	 6.21365390363353 
1376	 5.46396936337144 
1377	 5.20088119675177 
1378	 2.652017946739 
1379	 2.91250085371555 
1380	 1.89535753710551 
1381	-0.184594268754071 
1382	-0.138784568438482 
1383	 1.08911510848263 
1384	 1.11348006643462 
1385	-1.05589768310307 
1386	-0.739598518965642 
1387	-0.839271780744178 
1388	-0.216086286184287 
1389	 3.66940823758504 
1390	 4.70640120353064 
1391	 1.49676026863306 
1392	 2.18345378705422 
1393	 5.56625707215515 
1394	 6.83397895289311 
1395	 8.55554394224491 
1396	 9.30426914723323 
1397	 10.1973356256506 
1398	 8.39864281480023 
1399	 7.15526215379504 
1400	 8.33070147035566 
1401	 10.6468288752106 
1402	 9.9979259989487 
1403	 9.60852281949154 
1404	 10.967373605953 
1405	 8.36023885652152 
1406	 6.63175545167926 
1407	 8.04336390826699 
1408	 7.7307324986973 
1409	 6.43039316210872 
1410	 6.87492320310552 
1411	 6.74979708566767 
1412	 6.55807845084963 
1413	 9.14915232314615 
1414	 7.70802596297402 
1415	 1.81819584272927 
1416	-9.26712364533087E-02 
1417	-1.58455099382526 
1418	-2.43323116058358 
1419	 0.360160739608978 
1420	 3.44869804203866 
1421	 4.64581737366309 
1422	 4.09668127784487 
1423	 7.67705219706802 
1424	 8.77355430280462 
1425	 7.57277659067384 
1426	 9.838280112673 
1427	 9.01817942370156 
1428	 7.79665334949836 
1429	 6.1373799549112 
1430	 4.53389822905369 
1431	 5.21552149015682 
1432	 6.41966742276044 
1433	 7.3547931354438 
1434	 7.37120217275909 
1435	 7.52512358956851 
1436	 6.52179606456546 
1437	 7.37888576684495 
1438	 10.5003077771021 
1439	 12.7350844203578 
1440	 13.0026018959596 
1441	 9.92153684807309 
1442	 6.36274960234167 
1443	 1.56579208909066 
1444	-1.61281544069381 
1445	-2.25851198598057 
1446	 1.35030109127813 
1447	 2.57874349099358 
1448	 3.52040622301473 
1449	 5.27790264124665 
1450	 7.71794229613285 
1451	 9.57418322988367 
1452	 12.0867682858272 
1453	 15.0050460847749 
1454	 13.5010287319567 
1455	 9.0162951017613 
1456	 8.15539662999401 
1457	 6.38348877590115 
1458	 5.22545719333254 
1459	 9.4767409220293 
1460	 9.01440680784861 
1461	 6.55800466514966 
1462	 7.49920043622241 
1463	 4.38167352800345 
1464	 4.15552403355144 
1465	 8.6885246222915 
1466	 10.4832543888214 
1467	 14.3242678648114 
1468	 16.1419324058263 
1469	 12.1187506928152 
1470	 11.5942895343692 
1471	 10.9944366117415 
1472	 9.35180632369242 
1473	 13.0806775577896 
1474	 13.4111056371047 
1475	 11.7097029186385 
1476	 13.5619684036714 
1477	 14.4015495901228 
1478	 16.5573604585097 
1479	 19.4041103966931 
1480	 17.4398186302257 
1481	 13.7548047176292 
1482	 11.0465286218371 
1483	 6.99076276913231 
1484	 7.83226588938587 
1485	 11.0104450935651 
1486	 10.3287797224294 
1487	 10.7872653783124 
1488	 7.99091805681093 
1489	 3.56566494849065 
1490	 2.17962563688371 
1491	 2.80018279991434 
1492	 6.49165711744183 
1493	 8.74581859382217 
1494	 9.89338841602019 
1495	 9.48548093745133 
1496	 6.98775783009145 
1497	 7.0331293806276 
1498	 9.01568446981945 
1499	 11.3497567375959 
1500	 13.4354449499809 
1501	 13.3718858857333 
1502	 12.09407395978 
1503	 11.718222072865 
1504	 12.3538038725364 
1505	 12.3090881695214 
1506	 10.3396084216938 
1507	 9.14455300777574 
1508	 8.94089040594479 
1509	 8.1673473564492 
1510	 6.80424577286772 
1511	 5.80706595764439 
1512	 5.66230134383726 
1513	 7.22529994005264 
1514	 10.6017721835658 
1515	 11.8038410790793 
1516	 10.2316844967164 
1517	 6.35779359083048 
1518	 2.01102266480353 
1519	 1.61009550197627 
1520	 4.76585624167755 
1521	 8.16297940567974 
1522	 11.8288932979311 
1523	 13.1868692357672 
1524	 9.35601518892651 
1525	 7.16232748760483 
1526	 6.08502238891241 
1527	 3.36197343372367 
1528	 5.76597864263179 
1529	 6.73407737237358 
1530	 3.73416983293612 
1531	 5.83153699914594 
1532	 4.69917519907673 
1533	 1.61776902331993 
1534	 4.08609222114461 
1535	 5.12794286152521 
1536	 6.21987882406058 
1537	 9.51854808929797 
1538	 9.37754789940903 
1539	 5.43776577576406 
1540	 5.1308318255774 
1541	 4.57076975800428 
1542	 3.99016513240229 
1543	 9.00841118088004 
1544	 9.34353045226892 
1545	 6.92047279012895 
1546	 6.30750994128521 
1547	 4.51380456010543 
1548	 2.49020849816474 
1549	 1.93050969566515 
1550	 3.23760575360892 
1551	 2.77310512898776 
1552	 3.08138166433898 
1553	 4.11709144802763 
1554	 2.39432723617194 
1555	 0.200135200790315 
1556	 0.423893693254325 
1557	 3.29327767475847 
1558	 5.74551928664329 
1559	 8.86510428137641 
1560	 11.1917787757164 
1561	 10.8861001726472 
1562	 10.575052841971 
1563	 10.4612521152535 
1564	 9.16336441506705 
1565	 6.91433911713337 
1566	 7.49126946271201 
1567	 8.86028541903417 
1568	 9.66672030800306 
1569	 12.0671927707312 
1570	 12.7113949959093 
1571	 10.496109913657 
1572	 9.88509069981685 
1573	 8.65805054366501 
1574	 4.67240143549584 
1575	 5.16037591356397 
1576	 6.73115780826735 
1577	 6.74072146365166 
1578	 7.5265567003668 
1579	 6.71690320679551 
1580	 7.54750533333049 
1581	 8.84460093670941 
1582	 11.6534110371492 
1583	 15.1613471553095 
1584	 13.619752149346 
1585	 10.4263616162132 
1586	 9.06658622449902 
1587	 9.15667168311577 
1588	 8.7687221486898 
1589	 11.0942860469711 
1590	 13.1797431285903 
1591	 11.6851213059422 
1592	 12.1024335964602 
1593	 12.3868167048948 
1594	 10.1951742762288 
1595	 8.75260991347055 
1596	 9.47492947472043 
1597	 8.9326631926975 
1598	 9.45146708053805 
1599	 11.8958612694272 
1600	 11.3563483214971 
1601	 11.5714551657312 
1602	 10.492298631466 
1603	 7.13150875151905 
1604	 7.8850570450222 
1605	 7.17986637226055 
1606	 8.60910168109227 
1607	 12.6209734972042 
1608	 9.48563321767126 
1609	 6.96313506278943 
1610	 2.89027281133328 
1611	-2.23846443092228 
1612	-1.89296779099463 
1613	-0.989815542074661 
1614	 0.27553276809332 
1615	 0.892690764167965 
1616	 3.39023660149257 
1617	 6.13206896055887 
1618	 8.75333792251781 
1619	 13.0582595938744 
1620	 13.5156262138267 
1621	 12.7085850895515 
1622	 13.0636298503947 
1623	 12.5959907211314 
1624	 12.4826647281541 
1625	 14.80111912177 
1626	 19.1644882467876 
1627	 19.3805099159766 
1628	 16.6393455968094 
1629	 15.5836689644126 
1630	 12.1296038267376 
1631	 10.3238936825281 
1632	 12.1995471190185 
1633	 11.5748181492224 
1634	 5.58943941185577 
1635	 3.29252898693359 
1636	 0.355056446101183 
1637	-0.440395879982171 
1638	 3.50703481232006 
1639	 5.15233688737545 
1640	 7.78202683615857 
1641	 8.00928459356851 
1642	 4.53043821135281 
1643	 4.31509764439 
1644	 5.32866919048749 
1645	 4.89808664806611 
1646	 5.90285255777345 
1647	 5.54847806404481 
1648	 1.79126365220613 
1649	 0.653935609731769 
1650	 0.586137331471638 
1651	 1.11345712545388 
1652	 4.56249408209427 
1653	 4.24781084254619 
1654	 3.17350835029058 
1655	 1.24804223216318 
1656	-5.83735625691319 
1657	-7.35692324590866 
1658	-6.03893892493431 
1659	-5.07375604451681 
1660	-0.725914268833256 
1661	 0.724866417662869 
1662	 9.26410380290561E-02 
1663	 0.759585512050596 
1664	 1.47731484932207 
1665	 2.16865257383989 
1666	 3.24411857460017 
1667	 4.01530605875561 
1668	 4.63077912926363 
1669	 4.8488124811449 
1670	 5.66867899878118 
1671	 4.6601340011145 
1672	 1.55504840356441 
1673	 0.643003987147649 
1674	-0.379543691596652 
1675	-0.709789004168224 
1676	 0.349950963072266 
1677	 1.05754898283416 
1678	 1.95288337228268 
1679	 1.75298096565873 
1680	 1.31820256749286 
1681	 1.61537459360009 
1682	 0.932366177892748 
1683	 2.59592150842654 
1684	 4.75502191192794 
1685	 4.30575833899371 
1686	 4.46369773830702 
1687	 3.36645913355858 
1688	 3.05294819301153 
1689	 4.05929524794731 
1690	 4.04465913036917 
1691	 3.47964519985559 
1692	 3.41836584907511 
1693	 1.66040972996914 
1694	 2.48043086889667 
1695	 7.04754103565901 
1696	 8.51348432801591 
1697	 10.6108026359055 
1698	 10.7659410808344 
1699	 6.60010802283995 
1700	 4.82220488312516 
1701	 2.41336644087189 
1702	 2.60397443199509 
1703	 6.85832825499884 
1704	 7.21765940975555 
1705	 6.57400470191507 
1706	 6.84636991756781 
1707	 4.58037432151833 
1708	 4.28545469007156 
1709	 7.37620232653654 
1710	 7.74878868866849 
1711	 6.84552623259863 
1712	 5.9247307229536 
1713	 3.98732285910011 
1714	 2.61031279954343 
1715	 1.41969756792591 
1716	-0.525679561813527 
1717	-4.18870940045192 
1718	-3.36274412668609 
1719	-0.530391738752511 
1720	 0.751658313635806 
1721	 5.05552115289101 
1722	 5.87458896684818 
1723	 2.84173899187576 
1724	 3.97342944407867 
1725	 7.25063905759487 
1726	 6.42445293396357 
1727	 7.00384410499311 
1728	 3.1967117149953 
1729	-7.17973516272801E-02 
1730	 1.36746375653009 
1731	-0.284076325677689 
1732	-1.06948839685587 
1733	-0.875708800572835 
1734	-1.63465064339219 
1735	-0.550746752582064 
1736	 4.05327121125992 
1737	 6.03103367644483 
1738	 8.15471831800009 
1739	 7.97724209411773 
1740	 4.41455622772981 
1741	 3.1624677328359 
1742	 1.21210404608633 
1743	 0.617883359921124 
1744	 1.99100602346261 
1745	 2.45999063673803 
1746	 2.90227301997832 
1747	 3.8031451339824 
1748	 5.03411442503348 
1749	 5.29861098312828 
1750	 5.26561385558045 
1751	 5.72312128066963 
1752	 6.13417533309949 
1753	 6.78625848613971 
1754	 7.84187016675282 
1755	 9.31119754379475 
1756	-4.71190537809495 
1757	 3.56240880384093 
1758	 43.1989210516617 
1759	 53.2502547409304 
1760	 54.4525131221217 
1761	 33.306082402957 
1762	 20.2341325438219 
1763	 17.0033483205955 
1764	 11.8089847486909 
1765	 14.0358244400941 
1766	 13.3165622589283 
1767	 6.40502210006488 
1768	 7.42551876592674 
1769	 17.9942893551875 
1770	 19.7247211984306 
1771	 23.9788739675688 
1772	 22.6992396858963 
1773	 16.8915706016153 
1774	-0.600861797566139 
1775	-5.28109806329269 
1776	-12.9598921821587 
1777	-12.4398530952313 
1778	-6.38461121818577 
1779	 8.31128838673945 
1780	 21.0598235035974 
1781	 37.9453482727731 
1782	 60.5880430955289 
1783	 63.4143660432694 
1784	 61.8163974318173 
1785	 53.8619901723513 
1786	 46.9855193079812 
1787	 24.7939041785599 
1788	 16.6190094361147 
1789	 24.8004070815908 
1790	 34.5773761144894 
1791	 46.534091559804 
1792	 50.3220418499254 
1793	 46.4366603721419 
1794	 43.533592169303 
1795	 36.1671503847054 
1796	 22.9141807020694 
1797	 13.0460298120586 
1798	 11.7335486894808 
1799	 6.2740527848606 
1800	 7.3496184537666 
1801	 14.2570965210965 
1802	 18.626271089451 
1803	 18.4636334999638 
1804	 12.9773372807085 
1805	 11.2251580437834 
1806	 11.8765658423007 
1807	-6.03128808866217E-02 
1808	 0.559290185873458 
1809	 5.17160631005895 
1810	 1.05739317480604 
1811	 12.9972038259254 
1812	 20.8188217189483 
1813	 31.4595178521034 
1814	 33.3881460850201 
1815	 37.1654886639459 
1816	 34.3977519871481 
1817	 15.6019845144911 
1818	 12.4526227469569 
1819	 4.73570228084216 
1820	-5.34199229746003 
1821	-8.94847763186381 
1822	-11.7841916786128 
1823	-8.81930584115782 
1824	 8.78343086982492 
1825	 11.6778605653729 
1826	 7.19420230200841 
1827	 8.41785135189811 
1828	 7.01006537956939 
1829	 1.42411231943624 
1830	 2.14016257952732 
1831	 11.143530351233 
1832	 16.7798655376349 
1833	 24.8784456920712 
1834	 25.3236180054489 
1835	 25.3571285011163 
1836	 22.3337008563483 
1837	 1.5423677449509 
1838	-3.50669561122804 
1839	-5.61854298609785 
1840	 4.90522763886559 
1841	 13.8831193743364 
1842	 39.328244398134 
1843	 44.2284083840377 
1844	 43.7325083779245 
1845	 37.4179910275266 
1846	 10.1158569838731 
1847	-0.500183214650838 
1848	-15.3707349553694 
1849	-10.8899342762835 
1850	 1.29767669796314 
1851	 14.6852118618687 
1852	 22.7017498509099 
1853	 32.3193137586269 
1854	 35.683960508708 
1855	 34.5797933455732 
1856	 32.293122491557 
1857	 27.15395904247 
1858	 20.9187630452135 
1859	 16.2138858129818 
1860	 6.09213840221691 
1861	-6.67651477513183 
1862	-10.5442610984903 
1863	-5.09639253911836 
1864	 14.9722483124709 
1865	 18.0883655874611 
1866	 26.4198067731265 
1867	 28.3280598859016 
1868	 12.9970136760048 
1869	-1.74202574124659 
1870	 16.1379967291865 
1871	 32.3904665487897 
1872	 40.2191801795255 
1873	 42.3713343100469 
1874	 27.5383469860859 
1875	 10.3498700181277 
1876	 3.8071262257874 
1877	-1.09015773793065 
1878	 14.2671442663531 
1879	 31.9066288657781 
1880	 38.5939391436145 
1881	 43.7920014874407 
1882	 31.9814629888824 
1883	 20.342107491654 
1884	 20.9343466137965 
1885	 18.5250479833988 
1886	 27.4495944504713 
1887	 31.7478991937256 
1888	 37.2201621567509 
1889	 27.7894983484721 
1890	 30.9850146350166 
1891	 30.2176652260365 
1892	 22.5433843258571 
1893	 21.5614495459666 
1894	 16.4330312029148 
1895	 12.7358555239527 
1896	 4.00253232989513 
1897	 1.1316424664542 
1898	 7.5397622574216 
1899	 3.57473712982719 
1900	-8.70558397237595 
1901	-7.6990435336406 
1902	-11.8429526511729 
1903	-5.57382801113098 
1904	 7.8616080907889 
1905	 14.2488167680685 
1906	 20.0432762677475 
1907	 14.1615727504021 
1908	 13.2697226023643 
1909	 12.0623012965643 
1910	 13.7776692368944 
1911	 15.5665601638334 
1912	 18.3305478481365 
1913	 27.6167368625886 
1914	 24.2955858610483 
1915	 20.6041093871815 
1916	 22.4862226384236 
1917	 14.1854590067669 
1918	 6.83584936456871 
1919	 7.0510385647909 
1920	 11.7457621111207 
1921	 19.0163890256232 
1922	 41.0554671389464 
1923	 45.4262950661728 
1924	 42.4146456454676 
1925	 37.5385362445768 
1926	 21.3439553658281 
1927	 4.67038408427746 
1928	 4.37760919641281 
1929	 6.83648687458278 
1930	 6.02118678290096 
1931	 11.7690058775831 
1932	 13.3135913614174 
1933	 5.21327942582475 
1934	 7.19678761556304 
1935	 20.4128414803471 
1936	 22.8187235208899 
1937	 24.0467927401089 
1938	 24.7531392881161 
1939	 21.9010234595624 
1940	 12.0104291229726 
1941	 8.96237808137407 
1942	 8.3895016267842 
1943	 7.82906607974784 
1944	 6.53932715177839 
1945	 9.53462466729549 
1946	 17.8704115466183 
1947	 22.4558514306748 
1948	 33.3744645812961 
1949	 34.3670995819672 
1950	 20.94319058578 
1951	 18.6974347851729 
1952	 20.6589449137314 
1953	 15.1295177969366 
1954	 18.7850252259589 
1955	 35.6290363544104 
1956	 39.2234427841726 
1957	 35.884913533438 
1958	 38.6404060990068 
1959	 43.8896385221114 
1960	 42.889060246745 
1961	 41.9367383066027 
1962	 39.6362951209505 
1963	 28.0034147725525 
1964	 21.7791933444371 
1965	 21.5991713641037 
1966	 17.9682707045679 
1967	 14.7933747953118 
1968	 9.82034616029841 
1969	 9.37052840996788 
1970	 9.92771381196846 
1971	 12.5727795450038 
1972	 20.6458957256011 
1973	 25.1673100411204 
1974	 29.7013962897139 
1975	 31.9898076465802 
1976	 34.8013862919176 
1977	 34.0073729547339 
1978	 28.2823728498074 
1979	 23.8595195150938 
1980	 21.755955896121 
1981	 16.9650542599634 
1982	 17.5810563288848 
1983	 24.7934727779817 
1984	 28.2648433485098 
1985	 32.8689625570106 
1986	 35.6427317148016 
1987	 34.9341806266647 
1988	 37.2660452404539 
1989	 41.101440065955 
1990	 43.1993308780904 
1991	 45.5102320826375 
1992	 53.1844102343576 
1993	 41.5887040267432 
1994	 35.747086204507 
1995	 32.1709518090082 
1996	 24.0503792187952 
1997	 20.8805420337699 
1998	 28.6434748764375 
1999	 26.2211681099844 
2000	 15.4206489057073 
2001	 10.5012699685032 
2002	 2.05650934554208 
2003	 1.15369507022453 
2004	 1.62120626926584 
2005	 15.3326640361673 
2006	 28.8950507475099 
2007	 40.9661078013509 
2008	 43.9805969917402 
2009	 38.8966829027025 
2010	 37.8527771086982 
2011	 30.322136948113 
2012	 26.0005596124851 
2013	 27.8466884282565 
2014	 25.1368978267594 
2015	 17.4980423376675 
2016	 13.5096443094724 
2017	 6.16071825878952 
2018	 4.83004638566091 
2019	 9.74568479206266 
2020	 13.4402249838211 
2021	 13.1335261750045 
2022	 9.03114407119594 
2023	 2.12126056033343 
2024	-2.12502431097285 
2025	 2.37929960310076 
2026	 20.4785308931744 
2027	 29.3655856869427 
2028	 40.1802090885062 
2029	 47.2739956881608 
2030	 53.2135208879741 
2031	 50.4334028956985 
2032	 43.8905148160312 
2033	 34.7251698869201 
2034	 12.1292188435968 
2035	 0.538705581474499 
2036	-2.36323198893077 
2037	 3.21151956375213 
2038	 11.8378189783255 
2039	 12.2233535028968 
2040	 12.7828388843479 
2041	 8.62730638251856 
2042	 9.80646799505647 
2043	 13.1465431014415 
2044	 16.9546023519706 
2045	 25.6303126570163 
2046	 27.8083380744708 
2047	 27.6508371462889 
2048	 32.6333676157456 
2049	 38.9722946597969 
2050	 39.3546443867703 
2051	 43.5016119540483 
2052	 43.682478190024 
2053	 36.3796950130955 
2054	 36.5224315623502 
2055	 43.2359840033005 
2056	 34.3072507691863 
2057	 33.1291222255853 
2058	 39.6397230086085 
2059	 40.5035975445485 
2060	 42.5499850643084 
2061	 43.9989657498336 
2062	 46.470790346632 
2063	 41.5479411156573 
2064	 30.6545052290534 
2065	 21.6483264373821 
2066	 16.9181274912198 
2067	 2.40210813753985 
2068	 6.26341030141464 
2069	 18.8364246941746 
2070	 18.3940427253167 
2071	 19.144329816515 
2072	 8.89499144706278 
2073	-13.6134308595932 
2074	-15.2776599320158 
2075	-8.71794470728604 
2076	-7.04515648627967 
2077	 3.98434615737001 
2078	 11.4864769081922 
2079	 10.360862058229 
2080	 11.6203777945114 
2081	 15.0889441865605 
2082	 25.3345241878423 
2083	 23.441504528948 
2084	 25.5680073895449 
2085	 26.131649933453 
2086	 13.8655094351373 
2087	 11.9767601031163 
2088	 10.6158732468458 
2089	 9.58043122593829 
2090	 13.8813111783077 
2091	 6.76437214269669 
2092	-6.9639500412772 
2093	-17.9951184264495 
2094	-24.6712016602686 
2095	-25.0601892195611 
2096	-16.4864333936145 
2097	-9.09750124549115 
2098	 1.83018932707131 
2099	 17.4642079977486 
2100	 21.5439299656166 
2101	 21.6976234706581 
2102	 22.3990490879515 
2103	 8.86457302418348 
2104	 10.1324390289557 
2105	 24.4440488300589 
2106	 30.2409706548675 
2107	 33.892255047957 
2108	 36.3531324095992 
2109	 26.4742310690148 
2110	 18.7167923006733 
2111	 14.5526664949851 
2112	 2.59786296877975 
2113	-2.09057083936478 
2114	 0.544466440581103 
2115	 12.6486820124249 
2116	 21.0986010390616 
2117	 37.2901704567105 
2118	 45.0299181479354 
2119	 49.4313169882794 
2120	 48.5141803145908 
2121	 43.9070335809235 
2122	 38.6760307695818 
2123	 26.5753594126334 
2124	 23.9704070785625 
2125	 23.9083500098302 
2126	 28.9590514796466 
2127	 47.3425102078076 
2128	 49.487763199698 
2129	 48.6259964831893 
2130	 49.8565815029064 
2131	 38.8262977257648 
2132	 33.8932400383569 
2133	 30.0041505815719 
2134	 16.8072012009421 
2135	 12.64402128839 
2136	 12.7439334306064 
2137	 12.2424374937754 
2138	 19.6408471328677 
2139	 21.6554490384293 
2140	 20.68438860193 
2141	 16.8560487654246 
2142	 12.3776522299137 
2143	 13.8311762116764 
2144	 13.968066649493 
2145	 6.16580766944262 
2146	 2.68283423556401E-03 
2147	-4.40387504277815 
2148	-1.28830533725817 
2149	 1.81322914386488 
2150	 11.7058006930084 
2151	 21.2510354308224 
2152	 23.2551796608312 
2153	 24.6618352702741 
2154	 12.1745284366487 
2155	-5.03053802897943 
2156	-21.2541253301228 
2157	-28.0616487214255 
2158	-18.6394560017775 
2159	 20.6110784119973 
2160	 33.6681158193499 
2161	 49.578641138637 
2162	 57.0778233473079 
2163	 49.633027405418 
2164	 38.193714696687 
2165	 42.2693092030249 
2166	 52.0442125607271 
2167	 41.1810075143178 
2168	 36.3364974905948 
2169	 17.9670959576942 
2170	-8.19980749900086 
2171	-17.2286657325924 
2172	-20.8082527496277 
2173	 1.84702682844477 
2174	 25.0968111955617 
2175	 41.1195890008901 
2176	 57.6003443039936 
2177	 52.1722093102371 
2178	 32.6902968315379 
2179	 23.2336178242767 
2180	 12.70561686415 
2181	 2.92235596983276 
2182	 13.0620326276328 
2183	 17.108591637507 
2184	 22.1744341364372 
2185	 26.184508400328 
2186	 30.1926904906338 
2187	 26.1932608356076 
2188	 19.5895189478223 
2189	 7.92602923342049 
2190	-2.97299539123701 
2191	-1.45846629312061 
2192	 5.34963993471726 
2193	 9.9049527083861 
2194	 3.08679983077397 
2195	-1.53394924829834 
2196	-6.27673173979312 
2197	-5.77469553370653 
2198	 4.39689181936807 
2199	 9.41883175981032 
2200	 6.49315593517185 
2201	 0.881220871050898 
2202	 0.734480132336773 
2203	 7.28219017841836E-02 
2204	 6.30794676339367 
2205	 16.094129693134 
2206	 11.3374847247349 
2207	 12.7683031537924 
2208	 10.8117246084057 
2209	-3.59189176781424 
2210	-14.0276252834788 
2211	-30.2205715039926 
2212	-33.9468414175978 
2213	-35.7843974556102 
2214	-28.479779417503 
2215	-6.01714723152798E-02 
2216	 11.4086222872033 
2217	 20.4538709587085 
2218	 29.6148963360931 
2219	 32.8827541083494 
2220	 32.396272142038 
2221	 39.2813621928298 
2222	 37.5499449223389 
2223	 34.8991352818423 
2224	 38.0916630001348 
2225	 48.3305583989961 
2226	 63.6266958819342 
2227	 67.2962879207203 
2228	 65.1205426026165 
2229	 51.8875031230606 
2230	 28.0563906170089 
2231	 27.876962659967 
2232	 21.0284542827682 
2233	 8.37180097316972 
2234	 10.2259646116739 
2235	 2.45645216010417 
2236	 11.2921616423092 
2237	 30.9251624102494 
2238	 36.9656368824912 
2239	 40.8367977293721 
2240	 30.9489315777547 
2241	 15.7946493649438 
2242	 4.78789827404265 
2243	-7.07261714771874 
2244	-21.2617914339914 
2245	-26.089313623965 
2246	-27.5598907634792 
2247	-27.3292026738469 
2248	-23.4466382695149 
2249	-19.6551096733833 
2250	-13.1344472603168 
2251	-10.4480378906892 
2252	-3.34068040677987 
2253	 1.95906623317713 
2254	-1.18866307394936 
2255	 2.24516823973431 
2256	 14.9952633676017 
2257	 13.1448597069866 
2258	 3.77500307466697 
2259	 8.49724085668386 
2260	 3.13314707848833 
2261	-1.04179155777199 
2262	 8.69449963060378 
2263	 18.7212965306715 
2264	 22.6518796623516 
2265	 25.0269544806076 
2266	 25.3214354670968 
2267	 10.6741817343008 
2268	 1.6214106728948 
2269	-0.289928439446589 
2270	-10.1513217605106 
2271	-5.1341928993492 
2272	 6.23814285313853 
2273	 11.4644333546345 
2274	 27.6967744005207 
2275	 36.1721660398542 
2276	 35.5110530020407 
2277	 33.0981646099002 
2278	 26.8599859620673 
2279	 28.7703842913521 
2280	 29.417358184121 
2281	 32.2621276698633 
2282	 25.330818171713 
2283	 4.96897876731372 
2284	-5.52954116897351 
2285	-23.3367113948943 
2286	-29.101815501715 
2287	-16.7190998998787 
2288	-12.1253174032265 
2289	-7.92799711240951 
2290	 0.339280975672106 
2291	 7.57601760916869 
2292	 5.54436624689299 
2293	 3.64392890807191 
2294	-0.939414843702286 
2295	-14.665100438202 
2296	-14.6916520685374 
2297	-11.1818466517735 
2298	-4.70883265731999 
2299	 15.994033595191 
2300	 20.7636527582747 
2301	 20.0654196694474 
2302	 20.0206379253775 
2303	 7.04352157458662 
2304	 3.19876893599356 
2305	 5.06818140330089 
2306	 7.67538742361169 
2307	 15.4655556635274 
2308	 16.4544602963166 
2309	 16.538489155927 
2310	 15.6690283791896 
2311	 5.84056402044907 
2312	 1.35257086610218 
2313	 2.87382905170982 
2314	 7.04488896519035 
2315	 10.136815072408 
2316	 15.9601794165633 
2317	 8.08236576632216 
2318	-7.81026878806359 
2319	-13.3908993173459 
2320	-11.0657025632686 
2321	 3.38414906700867 
2322	 19.6905777495765 
2323	 29.3543775983197 
2324	 30.0968480085079 
2325	 20.9005202029408 
2326	 17.9047313106371 
2327	 30.871968887227 
2328	 28.8787889220983 
2329	 26.77260562545 
2330	 28.6392878506473 
2331	 11.1611609729227 
2332	 5.6633188337096 
2333	 4.43804706620369 
2334	-0.240030012267257 
2335	-1.30576611788708 
2336	-3.80829231317634 
2337	-3.03534726587576 
2338	-1.98916218160185 
2339	 0.278013670219393 
2340	-0.885409559046482 
2341	-1.77790888075499 
2342	-3.32953903437282 
2343	-4.76769770890294 
2344	 1.9975429414465 
2345	 1.00373582643803 
2346	 0.903745178277519 
2347	 4.78810531747283 
2348	 1.17464833752191 
2349	-4.89363310772359 
2350	-7.81347317859462 
2351	-13.3784095419453 
2352	-24.4948240758397 
2353	-17.3038381031514 
2354	-10.8377829408586 
2355	-8.95072535275513 
2356	 0.673718166039728 
2357	-0.560226940903776 
2358	 1.27469015790012 
2359	 1.76510915187275 
2360	 1.29128346404989 
2361	 0.135992962181999 
2362	-6.55332215612497 
2363	 1.37757888964452 
2364	 2.89725424307105 
2365	 6.24919355733638 
2366	 19.7967972491479 
2367	 15.387167481733 
2368	 14.7396085126573 
2369	 18.4461126771241 
2370	 19.8555902332889 
2371	 24.2580166257389 
2372	 30.2709507393224 
2373	 39.5039876035001 
2374	 38.2128844323354 
2375	 38.1795392119823 
2376	 38.8011701038582 
2377	 33.0537805617365 
2378	 29.2866080574521 
2379	 18.2476997594237 
2380	 8.04646598325307 
2381	 2.30123165625442 
2382	-6.21676777444502 
2383	-13.2059202551839 
2384	-20.1444362305332 
2385	-27.6776697228641 
2386	-34.6436499043446 
2387	-31.0184205327869 
2388	-20.8612729952827 
2389	-18.3243734470373 
2390	-13.5557272019231 
2391	-17.5673932844809 
2392	-27.467488970831 
2393	-28.328984591479 
2394	-32.1084301846177 
2395	-26.1568011193985 
2396	-15.3075972282739 
2397	-12.3401390083157 
2398	-4.28027209231521 
2399	 4.50624402416896 
2400	 7.26147489743872 
2401	 21.94114874862 
2402	 31.0186005952851 
2403	 21.5188404128913 
2404	 15.6887645264873 
2405	-4.96829864225432 
2406	-25.6702698312346 
2407	-24.058446386075 
2408	-21.9853367498093 
2409	-16.8745455131755 
2410	-2.94042137057269 
2411	-0.1044522186765 
2412	-1.60057807578472 
2413	 9.62914480252317 
2414	 5.86061093394769 
2415	-1.60716830844722 
2416	 10.0869170698357 
2417	 11.8413610398959 
2418	 15.3359516089472 
2419	 28.9066013924933 
2420	 26.1368402492751 
2421	 19.223027996925 
2422	 12.5833197528315 
2423	 0.501429732164195 
2424	-6.3860651781018 
2425	-19.8221542784561 
2426	-33.0807793627386 
2427	-30.3631956153925 
2428	-24.3260849749741 
2429	-12.2083318366463 
2430	 8.55145881880336 
2431	 11.3163528200897 
2432	-0.082383153883876 
2433	-1.40638458679082 
2434	-0.782962962812002 
2435	 1.55898016753805 
2436	 12.0233692717548 
2437	 16.4979288131807 
2438	 9.30495946250957 
2439	 9.566543115162 
2440	 9.21801817853246 
2441	-2.64292884107433 
2442	-15.2084192647352 
2443	-20.4800086984928 
2444	-23.3541483423416 
2445	-27.9821249210366 
2446	-20.581441362872 
2447	-23.5415615739135 
2448	-32.1930331639639 
2449	-32.3421155811603 
2450	-32.721053303066 
2451	-30.761331600084 
2452	-33.1814838310888 
2453	-28.6256757383514 
2454	-25.0200044824623 
2455	-22.0197795617383 
2456	-17.7673461805587 
2457	-25.7997219588197 
2458	-28.7822751471962 
2459	-26.8516097781608 
2460	-20.0102291645788 
2461	-3.83732916991972 
2462	 4.43128887994545 
2463	 4.45324418200512 
2464	-3.79966296837653 
2465	-23.3166904599773 
2466	-30.5231309046834 
2467	-38.5776369792537 
2468	-39.986272747532 
2469	-34.3194416508196 
2470	-23.2325978101911 
2471	-12.4271865277172 
2472	 0.75355064155727 
2473	 9.78022950332259 
2474	 1.68371484067849 
2475	-5.68315564536348 
2476	-15.186664004167 
2477	-24.285623523639 
2478	-20.7925310698411 
2479	-18.8529091481351 
2480	-13.2563846674172 
2481	-3.00654649528915 
2482	 0.119204161300771 
2483	 4.4701738856983 
2484	 9.28720382542274 
2485	 6.61722850663759 
2486	 3.79761771535241 
2487	 3.20241951204583 
2488	-9.47937852060178 
2489	-34.1501155490675 
2490	-47.5735801832315 
2491	-58.8688887975398 
2492	-64.0356654407773 
2493	-52.4338823202594 
2494	-47.3991751991702 
2495	-36.8825101596415 
2496	-25.6784695091686 
2497	-17.686997509937 
2498	-6.06541286786612 
2499	-9.24525594184906 
2500	-9.50189368072443 
