Wavelength	4mm_blackPC00000.asd
350	-0.688700984762887 
351	-0.318174323865948 
352	 1.46892246399542 
353	 0.511681869250138 
354	-3.05089517923237E-02 
355	 0.718906772573721 
356	 2.08960963678886 
357	-0.324260324482547 
358	-1.51520846831609 
359	-0.383625594996887 
360	 0.913108064313576 
361	 2.2444535199374 
362	 2.22997256028401 
363	 0.27473630898697 
364	-0.309316299647219 
365	-0.335864988377176 
366	-1.44677842638047E-02 
367	 1.4469695681333 
368	 1.32521238952416 
369	 0.313684617168446 
370	 2.60265569840712E-02 
371	-0.571146473297047 
372	-0.568092193720136 
373	 3.48411530845263E-02 
374	-0.969883217669892 
375	-1.11759472058216 
376	-0.479014878135116 
377	-0.288040019754371 
378	 3.11002232306489E-02 
379	-0.154907569163714 
380	-0.913475051620138 
381	-0.109429413850532 
382	 0.18456804322368 
383	 0.188762067994613 
384	 2.02746147086994 
385	 1.72665526826801 
386	 0.425784295587244 
387	 0.190244711232177 
388	 0.760693006306271 
389	 0.779999470965607 
390	 0.139463831789597 
391	 0.726641647307589 
392	 1.22369207034316 
393	 1.51744909232576 
394	 1.78675273060193 
395	 0.542364765287397 
396	-0.546678373697398 
397	-0.450346341526887 
398	-0.76977766732786 
399	-0.803168090100479 
400	-0.193052560209935 
401	 1.1321581661066 
402	 0.459199589825687 
403	-0.274422044936544 
404	 0.925654760573877 
405	 0.769926287152965 
406	 0.13818229736644 
407	-0.262105359813215 
408	-0.20319046213556 
409	 8.70739525975256E-02 
410	 0.698537918075589 
411	 1.67681048124331 
412	 1.48962912570587 
413	 0.62060710652885 
414	 2.25402607718953E-02 
415	 1.39972866782978 
416	 1.55217734034546 
417	 0.165731829401964 
418	-0.541392125815692 
419	 7.00414984152796E-02 
420	 0.552993973804803 
421	-0.508245772380817 
422	-0.473715732218257 
423	 0.179438391025424 
424	 0.67846941433308 
425	-0.203191114089321 
426	 0.255134420417115 
427	 1.34420821065843 
428	 0.611906349022017 
429	-0.104251453635871 
430	-0.773255572759128 
431	-1.31877197994111 
432	-0.105714271007266 
433	 0.579232634806705 
434	 8.51531506353819E-02 
435	-0.139388693668306 
436	-0.153148869974242 
437	-0.385081097165056 
438	-1.24335877113132 
439	-1.04632694639846 
440	 8.22838656953698E-02 
441	 1.24211033568643 
442	-1.83532581488956E-02 
443	-1.55076408462864 
444	-1.94910483264154 
445	-0.343837289281778 
446	-0.200415830428979 
447	-0.903116323022995 
448	-0.885438224647517 
449	-1.30184685691319 
450	-0.777430180402523 
451	 0.772547000881278 
452	 0.170215477342662 
453	-0.216165313885491 
454	 4.37063762150504E-02 
455	 0.202924177360691 
456	 0.337622146132883 
457	-3.07247589398583E-02 
458	-1.07517468484953 
459	-1.07588867488952 
460	-0.652894257008593 
461	-0.220921212870557 
462	 0.47183451715654 
463	 0.480108560126769 
464	-3.36551344703978E-02 
465	-0.31008585408018 
466	-0.886865268042944 
467	-1.18717258522637 
468	-0.770465331792848 
469	-0.524448014398787 
470	-0.452451294451669 
471	-0.478800759220251 
472	-0.434428625486271 
473	-0.603229271453557 
474	-0.826460964773188 
475	-0.737078475830692 
476	-0.152833538079173 
477	-0.180757700466773 
478	-1.25321325218804 
479	-0.440685124787381 
480	-0.390842475798858 
481	-1.42266104060998 
482	-0.47255290010112 
483	-9.40293171305726E-02 
484	-0.343329998869926 
485	-0.356455781289602 
486	-1.01179024503678 
487	-1.276606877821 
488	-0.616656996213978 
489	-1.2462503873174 
490	-1.31422869490417 
491	-0.918078893214452 
492	-3.00866064438601 
493	-1.91848351861443 
494	 0.528985900583498 
495	-0.182124663549515 
496	 9.33034859530677E-02 
497	-0.27611712519342 
498	-2.23040436378789 
499	-1.39164949743144 
500	-1.29385292289052 
501	-2.27661036546119 
502	-0.359191227259389 
503	 0.171578318578406 
504	-0.849488782197085 
505	-1.90642374734548 
506	-2.5894480832339 
507	-2.84601831725318 
508	-2.52569586072882 
509	-0.352999694024086 
510	 0.194640247370835 
511	-1.44246827361434 
512	-2.03529542280436 
513	-1.65468862241042 
514	-1.14408133111585 
515	-1.64961909074021 
516	-0.598752810311103 
517	 0.209059110641733 
518	-0.800475896339254 
519	-1.95070182411256 
520	-2.28941562732106 
521	-1.99306953394697 
522	-3.02792807965371 
523	-2.31353575762271 
524	-0.513336959004169 
525	-3.84209561675071E-02 
526	-1.13778907189425 
527	-2.22734810207924 
528	-1.94876375022868 
529	-1.2719247329358 
530	-1.02014035782783 
531	-1.29995024011696 
532	-1.06217224609929 
533	-1.1223687363925 
534	-1.5609951836244 
535	-2.10494689228292 
536	-2.6870518923504 
537	-2.56338015861581 
538	-1.35118187173846 
539	-0.615568847192442 
540	-0.675697851207174 
541	-1.57655036142528 
542	-3.36643357194857 
543	-3.198596466395 
544	-1.84644637428278 
545	-2.33494174232996 
546	-1.55440317444742 
547	-0.312984205360091 
548	-0.208068668636791 
549	-2.12115583892473 
550	-3.05338698582995 
551	-1.71731805271832 
552	-0.519579811605453 
553	-0.391298803694812 
554	-1.32916314765682 
555	-2.47104932773795 
556	-2.42123861560599 
557	-1.45767198051901 
558	-0.442772204004772 
559	 8.54771314039048E-02 
560	 0.106097328645557 
561	-0.529207991077201 
562	-2.75791895959289 
563	-4.59893934151762 
564	-4.5815093717204 
565	-1.44542774693621 
566	-0.718198273393039 
567	-1.58130299487907 
568	-1.25215008008389 
569	-1.26448636818541 
570	-1.25278968815396 
571	-1.02610959623499 
572	-1.69391629293696 
573	-1.51142492297589 
574	-0.590668562819193 
575	-1.33800889343361 
576	-1.95494800789804 
577	-2.36867308801591 
578	-3.03471097524896 
579	-2.70470025422911 
580	-2.01843418189726 
581	-1.68879848902602 
582	-1.32250426002027 
583	-1.99963895019874 
584	-3.52666040592842 
585	-3.78961218440612 
586	-2.40333996953866 
587	-0.721666625053004 
588	-1.10831095679252 
589	-1.59167373175563 
590	-1.40715743328818 
591	-0.497749693829608 
592	-0.896246049406736 
593	-1.50817500561129 
594	-1.74453842135204 
595	-2.23491416374852 
596	-3.13421205784725 
597	-3.52575932068974 
598	-1.70542203485364 
599	-0.211843293591072 
600	-0.221351315430236 
601	-1.80627330865 
602	-0.76440056331656 
603	 8.71490487490194E-02 
604	-1.12465409339762 
605	-2.98671836642303 
606	-3.41285483029475 
607	-2.36344182909093 
608	-1.71661222459907 
609	-2.4307955329551 
610	-2.98351126084585 
611	-1.49513041185181 
612	-2.12564117381107 
613	-2.70451375324433 
614	-1.66783189439657 
615	-1.70926575296649 
616	-1.71397526019768 
617	-1.40475387669679 
618	-1.49677266605799 
619	-1.871028498907 
620	-1.86352297919972 
621	-0.729158051905539 
622	-0.513337180631955 
623	-1.52903257097545 
624	-3.16563724097137 
625	-2.56692167992231 
626	-2.27881458395287 
627	-2.84711071006651 
628	-1.14676101760966 
629	-0.387721863194574 
630	-0.952291238742826 
631	-1.76170915170684 
632	-2.29917434134936 
633	-2.232930574433 
634	-1.59049615165131 
635	-1.61429880184784 
636	-1.68612484599527 
637	-1.60502351415671 
638	-2.3047473097093 
639	-3.20260885390052 
640	-3.46681632980541 
641	-2.00084749840519 
642	-2.01388089489018 
643	-2.7395111711993 
644	-2.47797545837836 
645	-1.64285667918517 
646	-1.76743389819364 
647	-3.10026556042328 
648	-2.32308881039914 
649	-1.62602004780944 
650	-1.58085788413217 
651	-1.27941081597461 
652	-2.83936151963101 
653	-4.28587310906419 
654	-2.75053566019066 
655	-2.32055611979415 
656	-1.78209865162894 
657	-0.284556882606998 
658	-0.275307126603367 
659	-1.76621774542861 
660	-3.70839499134027 
661	-3.56340447498875 
662	-2.31899426047605 
663	-0.672021936252811 
664	 0.529228810922398 
665	-0.818055315364764 
666	-1.8080056490527 
667	-0.551362281914883 
668	-3.24255735808304 
669	-3.7336921044294 
670	-0.852608564546166 
671	-2.16407244227194 
672	-2.71483913374573 
673	-1.86009620828985 
674	-0.996541015657065 
675	-1.72209446986468 
676	-2.9598121986541 
677	-3.1793082231238 
678	-1.74479517800267 
679	-1.99191521096443 
680	-4.28100379390003 
681	-2.5964577497557 
682	-0.82186860509803 
683	-0.846872852882017 
684	-3.49176585982419 
685	-2.5723041677277 
686	-0.360330964723687 
687	-0.657950178298756 
688	-1.26395452292646 
689	-1.87349418069527 
690	-2.23968791901238 
691	-1.73700821737263 
692	-1.83076439161846 
693	-2.38141358197956 
694	-1.89765505765741 
695	-1.78681070261831 
696	-1.47553709590649 
697	-0.288096366078937 
698	-1.50423343786144 
699	-1.9451527951552 
700	-0.291230743722477 
701	-2.13474125229067 
702	-2.67577444058328 
703	-1.33650783877132 
704	-1.58786993201906 
705	-2.12504922278058 
706	-1.8287156860169 
707	-6.98725876576107E-02 
708	-1.09082708176152 
709	-2.43468381699574 
710	-2.25521220012213 
711	-3.29963768211696 
712	-3.11801993273456 
713	-1.83238526615744 
714	-2.5865172184387 
715	-2.67178928469279 
716	-2.04251569869065 
717	-1.64853612302561 
718	-2.14087613261104 
719	-2.4581804972506 
720	-1.92676440522835 
721	-1.88472690299474 
722	-2.52473713336682 
723	-3.15436554925706 
724	-1.74831953274212 
725	-1.5087537902691 
726	-2.08582278595374 
727	-1.74005089060422 
728	-0.906388129861469 
729	-0.672845115768193 
730	-1.76487231089673 
731	-3.76162346894208 
732	-3.47761045694207 
733	-1.17913198359265 
734	-1.89947400325334 
735	-2.17469410498877 
736	-1.59261511730219 
737	-1.02979392847468 
738	-2.48475067943843 
739	-3.47903948946089 
740	-2.24235718287125 
741	-2.11314800637137 
742	-1.67234383966281 
743	-1.1631144243509 
744	-3.53338355555968 
745	-2.53213875152837 
746	-0.281284414570697 
747	-2.09056440682668 
748	-3.49499042659216 
749	-3.52101769736328 
750	-2.44116935336518 
751	-2.77304932007631 
752	-3.14009711484259 
753	-2.81025391607112 
754	-1.76911285080045 
755	-1.83808900903916 
756	-2.41334266652984 
757	-1.98532615997767 
758	-1.69714834267015 
759	-2.5026281000622 
760	-4.26402660987291 
761	-3.40845721745531 
762	-2.56320944143521 
763	-2.31848835247022 
764	-0.70778018347455 
765	-1.7207971923524 
766	-3.28829753025185 
767	-1.68351620420478 
768	-1.83310890423691 
769	-2.46871360014318 
770	-2.27860445268379 
771	-2.31039092018875 
772	-1.74280034610461 
773	-0.898041126190869 
774	-1.31535010324419 
775	-1.69987846722072 
776	-1.66106106580001 
777	-1.21407918225026 
778	-1.19116633912973 
779	-1.52544919928689 
780	-1.91213148029489 
781	-1.55887502018172 
782	-2.22088728769501 
783	-3.64451401213462 
784	-3.88504650533126 
785	-2.67646573213718 
786	-1.88056904163117 
787	-3.16721040108438 
788	-2.9437618881541 
789	-2.06805456565642 
790	-1.4738245190182 
791	-1.62511502587187 
792	-1.92552242286431 
793	-2.12488134772981 
794	-2.15224541462904 
795	-1.75022977706403 
796	-1.32174035529791 
797	-1.26146960625681 
798	-1.15548937693408 
799	-1.67796194245925 
800	-2.35038899543943 
801	-0.448290036903085 
802	-0.90541955210765 
803	-2.11350571895915 
804	-0.103755834767208 
805	-2.2228975893441 
806	-4.66648122111809 
807	-4.09147570509733 
808	-4.40540379055155 
809	-4.60229047882836 
810	-3.8433654034306 
811	-1.33051814746751 
812	-1.01785310506055 
813	-2.28112294433732 
814	-2.92545347773563 
815	-2.09363420163922 
816	-1.11228658895996 
817	-1.07290479589689 
818	-2.25727983391511 
819	-3.01470851100453 
820	-3.23579128383781 
821	-3.78254424515918 
822	-2.07235890957597 
823	-0.832916373006313 
824	-2.37457837604766 
825	-1.95365147805531 
826	-1.10351347507193 
827	-0.867178945381121 
828	-1.38496973544391 
829	-1.61652273152444 
830	-1.55688523014126 
831	-1.63394647449138 
832	-1.87666083774898 
833	-2.14990025744003 
834	-2.09026449843708 
835	-0.387147489025035 
836	-1.03022322364301 
837	-3.04315608909658 
838	-1.48683744030386 
839	-1.14055401036323 
840	-1.8609826764432 
841	-2.44739974942512 
842	-2.80538908005797 
843	-2.78926360654439 
844	-2.57063802064605 
845	-2.88503257683723 
846	-2.23034155561285 
847	-1.33897656661517 
848	-1.65273272273215 
849	-1.41846113376673 
850	-1.74387920865611 
851	-2.89549005730553 
852	-1.93691509763197 
853	-1.46755651854839 
854	-2.02826870695834 
855	-2.6250401590375 
856	-0.907886926258272 
857	 1.91501746779167E-02 
858	-2.30890824889237 
859	-2.45881753147016 
860	-1.70471268881613 
861	-0.813201616796558 
862	 0.426918650848082 
863	-0.621718186631943 
864	-2.77731290843806 
865	-3.64226786572258 
866	-3.25964115349425 
867	-2.07069057467469 
868	-1.05213626356869 
869	-2.56335703540632 
870	-2.31832156471174 
871	-1.11783030644716 
872	-2.03201051266505 
873	-0.77763884795494 
874	 4.29195891099862E-02 
875	-1.41341165810486 
876	-1.89148969612962 
877	-1.57264216985446 
878	-1.32838884010348 
879	-2.57290697325766 
880	-2.23155485869291 
881	-1.43556362572448 
882	-1.67380415973661 
883	-1.66160422031194 
884	-1.76733085809304 
885	-2.00754463825762 
886	-1.91756436101448 
887	-3.2923463532948 
888	-4.0757426077902 
889	-2.18408878299586 
890	-2.61751429892365 
891	-2.36518967660717 
892	-0.861538138549629 
893	-2.40567796982177 
894	-1.95889420123173 
895	-0.620436389288321 
896	-1.51088203366939 
897	-3.79310042768129 
898	-4.39241256308276 
899	-2.37300835291928 
900	-1.32187670826167 
901	-0.643872204688873 
902	-0.606559958064475 
903	-1.46602006123515 
904	-0.721220795468647 
905	-9.33503081205545E-02 
906	-0.624765362351066 
907	-0.2898991553397 
908	-0.546978757743836 
909	-1.32909748339714 
910	-1.7112280113776 
911	-1.56623617012478 
912	-1.52756311456795 
913	-1.9677850172457 
914	-2.2680811366322 
915	-2.06471009112765 
916	-1.56725822239818 
917	-1.40959084599241 
918	-1.90177711416521 
919	-2.29685963824476 
920	-2.08893059875117 
921	-2.10640241776102 
922	-1.60086605442736 
923	-1.37074998489382 
924	-3.13280647638804 
925	-3.35491335801491 
926	-3.32695550417459 
927	-4.04194524661791 
928	-2.49359713063164 
929	-1.40785898449578 
930	-1.20854490114811 
931	-0.685693826834456 
932	-1.76574755941167 
933	-2.87105076848828 
934	-2.63365296358514 
935	-2.29371344104837 
936	-1.55908723075689 
937	-0.811665870661522 
938	-0.831003521385527 
939	-0.633341158764394 
940	-1.17788174387175 
941	-2.6171507495373 
942	-1.73201504819322 
943	-2.09103841727427 
944	-2.77715809364103 
945	-0.449726288114589 
946	-0.21613368336355 
947	-1.40084538248954 
948	-2.58354599347964 
949	-2.91746874929398 
950	-3.18023229445774 
951	-3.07108103438507 
952	-1.96140260828622 
953	-1.89566160619728 
954	-2.43902931175096 
955	-2.80979985634462 
956	-2.12087706472234 
957	-1.63955058081879 
958	-1.64850345676232 
959	-1.9686434619019 
960	-2.40746120837056 
961	-2.64227153614878 
962	-2.45717235625739 
963	-1.75562945113376 
964	-1.52837774629585 
965	-1.23694740755169 
966	-3.77325875052518 
967	-0.602511831917465 
968	 5.0192023453998 
969	 5.58252840051307 
970	 3.69883432814143 
971	 3.16246438621816 
972	-0.424396416642343 
973	-2.2745718421411 
974	-2.39123837534538 
975	-1.98165580247884 
976	-1.74966438487063 
977	-1.33418708169933 
978	 1.47191097740309 
979	 1.73114808132569 
980	 0.781160472129502 
981	 1.96012825511464 
982	 1.90828049082294 
983	 2.49468323416977 
984	 6.20609075253779 
985	 7.0473798358271 
986	 6.3565192976384 
987	 5.99797029855524 
988	 4.01987976417087 
989	-3.9945132763811 
990	-5.75290779805893 
991	-4.08014926156294 
992	-4.27621735747439 
993	-3.20067190087126 
994	-0.685483067405194 
995	-1.35691023306047 
996	-2.39003041118295 
997	-1.80509162272801 
998	-3.05071781676621 
999	-3.74734887432139 
1000	-5.15638796720283 
1001	-7.46991913742304 
1002	-7.86903524947603 
1003	-7.52288943676443 
1004	-4.3131489369851 
1005	-1.97410441449909 
1006	 1.33564480903054 
1007	 4.41136318415051 
1008	 8.69769385689734 
1009	 8.27997047532596 
1010	 8.20464946942536 
1011	 9.60661680983873 
1012	 8.53022820220049 
1013	 7.0684234348065 
1014	 6.98137701350765 
1015	 4.03066687451474 
1016	 0.481016302133772 
1017	-0.757001263218516 
1018	-1.83776619963656 
1019	 5.10408320101415E-02 
1020	 0.77394672838152 
1021	 1.79839948151865 
1022	 4.36320478909552 
1023	 5.30077075928036 
1024	 4.68677669268477 
1025	 5.78799322078994 
1026	 6.24561015997838 
1027	 4.4355656109078 
1028	 1.56647627174778 
1029	 0.34978091762832 
1030	 0.869357120434225 
1031	-0.778364804227385 
1032	-0.504918277533287 
1033	 1.42809810290844 
1034	-0.937476434928869 
1035	-2.70606068877494 
1036	-1.14824533186208 
1037	-3.70392105668177 
1038	-7.60144105631686 
1039	-8.67230303847259 
1040	-9.00254649015374 
1041	-9.75840233838436 
1042	-8.93577761261258 
1043	-5.68684528541728 
1044	-2.13194461244375 
1045	-1.52799168305822 
1046	-1.50384766877676 
1047	-1.55773351735407 
1048	-3.34145073175667 
1049	-2.27855362040819 
1050	-1.20256867711833 
1051	-3.52414045567263 
1052	-5.72872356324248 
1053	-6.46526401117291 
1054	-8.3068879428536 
1055	-7.24481709021723 
1056	-3.39635723840944 
1057	-2.05825801023392 
1058	-2.2725081058952 
1059	-2.36326380400828 
1060	-3.57077923294765 
1061	-3.85253133485517 
1062	-4.30005111804444 
1063	-4.30854586167812 
1064	-2.74086726626969 
1065	-1.73277501750321 
1066	-2.52580852685185 
1067	-1.76812666490492 
1068	-1.02665659893071 
1069	-2.23396497849963 
1070	-0.794058409811139 
1071	 1.67305083223927 
1072	 3.28934848979503 
1073	 5.25183327383516 
1074	 5.28990165947824 
1075	 3.10028976763557 
1076	 2.16996348766317 
1077	 0.398727773089647 
1078	-0.447023447788279 
1079	-0.778379791037306 
1080	 0.147929803233108 
1081	 3.65768157079829 
1082	 3.76001197494302 
1083	 2.23098896635284 
1084	 2.11680052892099 
1085	 2.0047871383232 
1086	-1.20926700474955 
1087	 2.66712635573951 
1088	 5.79475058330292 
1089	 2.43323974305388 
1090	 0.636301217442896 
1091	 0.451560597595336 
1092	-0.527934903060085 
1093	-0.667954816782503 
1094	 3.18712902251935 
1095	 2.63986992114716 
1096	-1.81712218939592 
1097	-4.53266404452724 
1098	-8.9346304855953 
1099	-9.71932799259184 
1100	-7.52733035729948 
1101	-6.95729273115087 
1102	-5.14916878326375 
1103	-3.43547186096009 
1104	-2.06111963029216 
1105	-2.01981676584107 
1106	 0.394629048648923 
1107	 0.166115703757117 
1108	-2.67900011104848 
1109	-1.57721648760912 
1110	-1.26586670789032 
1111	-0.358606070408088 
1112	-0.153765397589673 
1113	 0.186627912941433 
1114	 0.229145444259863 
1115	-0.390259481321637 
1116	-0.446331177959765 
1117	 0.468817807908648 
1118	 0.361221910055282 
1119	-1.0008714897376 
1120	-0.982869753060862 
1121	-1.19473952563759 
1122	-0.449724195549027 
1123	 3.67555048502961 
1124	 4.38614504103233 
1125	 3.53273369978189 
1126	 2.45554983660419 
1127	 0.711163323831565 
1128	-4.33023401829785 
1129	-4.76410147998265 
1130	-2.87789325368393 
1131	-2.08633358741137 
1132	 0.431191624004202 
1133	 1.2176087427169 
1134	 0.791781238377022 
1135	 0.792648037224416 
1136	 0.977414785209826 
1137	 0.468719585712991 
1138	-0.730583421915542 
1139	-1.49546900046039 
1140	-1.50467064555594 
1141	-3.33692009435227 
1142	-7.96369056896395 
1143	-9.15696264277139 
1144	-8.98182258769234 
1145	-9.91702097932495 
1146	-8.88743245118011 
1147	-8.13810293558451 
1148	-7.94812604260212 
1149	-10.5264832026129 
1150	-9.54717091734322 
1151	-6.45564439200798 
1152	-3.98712567856455 
1153	 7.3594026683925E-04 
1154	 1.77762273431502 
1155	 2.65053178186894 
1156	 3.99487779777829 
1157	 4.47995227183146 
1158	 4.86611229636709 
1159	 6.54202547572082 
1160	 6.1201678051043 
1161	 2.75104966653254 
1162	 1.79740188771805 
1163	 1.92814341830905 
1164	 0.978820117545695 
1165	 0.981063014986731 
1166	 2.65951330597836E-02 
1167	-3.43477329176433 
1168	-5.55839188006945 
1169	-5.44440030172435 
1170	-6.32822097325686 
1171	-4.24382756040681 
1172	 1.30184758716136 
1173	 2.72001451957051 
1174	 4.58205366445609 
1175	 4.74428518755477 
1176	 0.953187564528162 
1177	 0.740140792289263 
1178	 2.27261920060938 
1179	 2.22341388754601 
1180	 1.88336854139502 
1181	 2.78898743862432 
1182	 4.01826976569205 
1183	 4.45629607505478 
1184	 5.82132949550306 
1185	 7.21513299421924 
1186	 7.50140145225386 
1187	 7.62910784533874 
1188	 8.04112931424738 
1189	 8.52828874469531 
1190	 9.20751444512548 
1191	 9.21557175560616 
1192	 5.30882511560398 
1193	 6.01999986462018 
1194	 2.73607580029601 
1195	-3.03030129751003 
1196	-5.25296111529485 
1197	-6.55624533338975 
1198	-6.06092609542284 
1199	-2.22048034172305 
1200	-1.45926709696216 
1201	 0.147877197172742 
1202	 0.258951512930445 
1203	-3.00488484124127 
1204	-3.68185571514118 
1205	-3.04134062699015 
1206	-3.07674678565561 
1207	-2.63120679143938 
1208	-2.39654732173282 
1209	-1.50055471114624 
1210	-1.81849513238366 
1211	-2.58142767777421 
1212	-5.09438496934226 
1213	-4.22192621335817 
1214	-7.42044930197625 
1215	-7.85354661053514 
1216	-4.62387451509692 
1217	-6.29973200958717 
1218	-2.69050060593804 
1219	 2.82683060077716 
1220	 3.19784557625259 
1221	 3.76810320566102 
1222	 4.32633287735852 
1223	 4.13602260688166 
1224	 0.542083058721791 
1225	 0.608122396477525 
1226	 3.5118831079414 
1227	 3.85694988168733 
1228	 5.40156577684684 
1229	 4.99937190708659 
1230	-3.01519663160804E-02 
1231	-0.215453603785984 
1232	 0.801854311045291 
1233	 2.22392308758401 
1234	 8.91695603744074 
1235	 10.7365494325938 
1236	 9.97452720485331 
1237	 9.09283097053901 
1238	 6.54428038817788 
1239	 6.62683832173991 
1240	 6.55194786117154 
1241	 4.78364459495559 
1242	 2.47289102029428 
1243	-1.44492322303507 
1244	-3.68588423430183 
1245	-2.6394104997153 
1246	-0.984926063626131 
1247	 1.16568536431436 
1248	 3.76750591958087 
1249	 5.15310793683346 
1250	 5.07016286898203 
1251	 2.8593504924986 
1252	 2.17155392804818 
1253	-0.495527498285431 
1254	 4.39133466457737E-02 
1255	 4.85131630016725 
1256	 6.48371509696965 
1257	 8.19460758926519 
1258	 8.74191763169006 
1259	 7.47489466336408 
1260	 5.58314127230838 
1261	 2.86369411562742 
1262	-0.52887448488637 
1263	-1.66387017093579 
1264	-1.05589032352375 
1265	 1.15270464960881 
1266	 5.25449457146175 
1267	 7.83796262273535 
1268	 6.92680692258872 
1269	 4.5200896625889 
1270	 4.08106844657812 
1271	 3.26100411442613 
1272	 4.29257689546222 
1273	 8.67103266241614 
1274	 8.1066238135773 
1275	 7.31309188370148 
1276	 5.34105013050363 
1277	 0.075487905061671 
1278	 4.12337737164709 
1279	 5.97235029803551 
1280	 8.65897719647635 
1281	 10.1118212171582 
1282	 12.7210281168385 
1283	 11.3145287361597 
1284	 8.31444910276766 
1285	 6.96426031661314 
1286	 3.24227668172368 
1287	 1.03580757140901 
1288	 0.431798334582284 
1289	-1.73330246297421 
1290	-3.17189859916522 
1291	-3.10463155951984 
1292	-2.45304465475715 
1293	-1.79215883539863 
1294	-1.55162670104416 
1295	-3.64530645142188 
1296	-6.48963647012524 
1297	-8.149233331404 
1298	-5.36141941412079 
1299	-7.79629528727743E-03 
1300	 1.90348311408018 
1301	 6.64772103455721 
1302	 9.367845318125 
1303	 7.00526323674352 
1304	 7.25535749804399 
1305	 5.74936136267848 
1306	 1.58665321781722 
1307	-0.153439860345982 
1308	-0.312660883497937 
1309	 1.53609008554586 
1310	 4.05797673155273 
1311	 2.49194786248392 
1312	 2.89923148175026 
1313	 3.0534822129534 
1314	 3.22957422272332 
1315	 5.09145568508631 
1316	 6.82568047113197 
1317	 8.0266342720794 
1318	 8.65889645576688 
1319	 9.19713147753393 
1320	 9.05795944058183 
1321	 9.70169700661135 
1322	 7.20248662565621 
1323	 4.4939725143571 
1324	 3.53231394101399 
1325	 2.43652637273917 
1326	 3.61822620251662 
1327	 6.22437652805448 
1328	 8.30671648048402 
1329	 9.95935970285823 
1330	 10.3375258793143 
1331	 10.3895073939344 
1332	 8.76805164986773 
1333	 4.45804137493112 
1334	 3.57998500260538 
1335	 5.80605844361 
1336	 6.22780358254026 
1337	 7.02840825857506 
1338	 7.59532270777032 
1339	 5.33231604650817 
1340	 5.60804281164367 
1341	 7.32033535757548 
1342	 6.93965799102885 
1343	 8.22068266175692 
1344	 6.27226370163912 
1345	 3.55564829295144 
1346	 4.42696256309479 
1347	 4.3025232707444 
1348	 2.92336236792409 
1349	 3.50671162093961 
1350	 7.03724481276396 
1351	 7.14227452923806 
1352	 4.79600102477554 
1353	 4.0527150661923 
1354	 3.67861985500281 
1355	 1.04423620022513 
1356	-2.27629015620869 
1357	 2.19601243617256 
1358	 4.29349391425159 
1359	 2.12510497950924 
1360	 5.51365424081637 
1361	 5.22039089601441 
1362	 3.08176966573784 
1363	 5.79233820513475 
1364	 6.71822704500847 
1365	 7.32710720644223 
1366	 8.87070803028059 
1367	 8.08870118910743 
1368	 8.05163901586929 
1369	 8.59169792227751 
1370	 6.08413181652063 
1371	 5.29909227606679 
1372	 5.58825998196463 
1373	 4.44668780197758 
1374	 5.3691461238697 
1375	 5.53455274050397 
1376	 4.80202738680414 
1377	 4.67046844861258 
1378	 6.40605705712006 
1379	 10.6926795172787 
1380	 9.59797719857665 
1381	 6.57542139410611 
1382	 5.94172852129905 
1383	 2.1325035000191 
1384	 2.62367787885046 
1385	 4.85221925774999 
1386	 3.67971387528803 
1387	 4.45186596256038 
1388	 4.19191897405267 
1389	 3.7974771661653 
1390	 4.44149990741019 
1391	 5.61329607264166 
1392	 6.64616799592558 
1393	 9.3915370267813 
1394	 10.4654795832522 
1395	 11.2675060606011 
1396	 9.16764520797827 
1397	 8.59721457142616 
1398	 8.79280420401835 
1399	 7.22527190068847 
1400	 6.24712868576492 
1401	 5.35856650072348 
1402	 2.99871929473062 
1403	 1.71045960137777 
1404	 3.17025135740813 
1405	 3.71648072481272 
1406	 2.35918246219518 
1407	 1.27709456898366 
1408	-0.481439924499696 
1409	-3.18780167451692 
1410	-4.60887768843326 
1411	-2.40675471764092 
1412	 1.48661306366147 
1413	 3.40098404210921 
1414	 3.54847343109621 
1415	 2.42757323907184 
1416	-0.273256049904768 
1417	-0.180439864155091 
1418	 3.85732252732334 
1419	 5.9006292323259 
1420	 7.56580324438975 
1421	 9.42193459056412 
1422	 8.4728799500141 
1423	 8.02150180633801 
1424	 7.88128982562362 
1425	 5.22678414700753 
1426	 3.43397333879452 
1427	 5.35964363783152 
1428	 4.58125416260502 
1429	 2.58911001742753 
1430	 3.44725173718318 
1431	 2.83463225268351 
1432	 2.4249494004431 
1433	 4.10048688365619 
1434	 5.55485540309253 
1435	 4.95713036693935 
1436	 4.63455362023046 
1437	 5.1322329591958 
1438	 5.21851338882324 
1439	 3.80111282147338 
1440	 2.98650302921773 
1441	 4.29578818567877 
1442	 4.34695941716193 
1443	 5.28623312991968 
1444	 5.67879211212038 
1445	 5.22014275053194 
1446	 2.30089749972561 
1447	 1.15542829510138 
1448	 0.827678896382534 
1449	 1.10961312170594 
1450	 2.75331560235505 
1451	 3.80878951284377 
1452	 5.23917627086501 
1453	 5.07290028378865 
1454	 3.80873206030662 
1455	 1.52779261783727 
1456	 2.53230892561867 
1457	 2.54869456006878 
1458	 2.35746453707975 
1459	 2.87697476031673 
1460	-0.233189012098701 
1461	-2.87770411535972 
1462	-3.65202368295392 
1463	-3.18492642459266 
1464	-0.450919372902035 
1465	 3.72312945702287 
1466	 5.21045615543146 
1467	 5.14564846547444 
1468	 6.38424283914311 
1469	 5.31887976915093 
1470	 7.13494040868123 
1471	 11.0449129276285 
1472	 10.1811044147222 
1473	 5.94605375247905 
1474	 4.64436966916188 
1475	 5.96194062931288 
1476	 5.00848296008345 
1477	 9.15414571200191 
1478	 12.6738279990144 
1479	 8.86832988175817 
1480	 7.18889608584301 
1481	 5.23864789984356 
1482	-0.907194156594071 
1483	-5.16579760849219 
1484	-5.3824193935905 
1485	-5.34389519583648 
1486	-2.87873828417637 
1487	 1.49967891778294 
1488	 1.87251438474412 
1489	 2.86443931555352 
1490	 3.70387649090633 
1491	 1.66112147559426 
1492	 1.52886790662732 
1493	 0.92583973475826 
1494	 0.089280925243079 
1495	 1.94874460548122 
1496	 3.03685805055543 
1497	 4.22478144368483 
1498	 7.61429241391123 
1499	 8.63698936684012 
1500	 10.2677267052963 
1501	 12.811006912623 
1502	 9.87779369170283 
1503	 7.14191802771198 
1504	 4.95784607868886 
1505	 0.602556645909317 
1506	-0.571377352267605 
1507	-1.20919303053603 
1508	-2.84969064845326 
1509	-1.502783271464 
1510	 0.97905169689394 
1511	 4.41602784991706 
1512	 8.90203935454929 
1513	 10.1383352475395 
1514	 10.2778321146283 
1515	 10.6995109956673 
1516	 8.8570760732951 
1517	 8.14694297380072 
1518	 9.94646712158361 
1519	 9.7217676350774 
1520	 10.433614250064 
1521	 13.3347995904615 
1522	 10.8280528710421 
1523	 8.56394835972717 
1524	 9.73098896688724 
1525	 9.09726971653827 
1526	 11.6332372616479 
1527	 16.1098830084045 
1528	 15.9699581850152 
1529	 14.5024256723385 
1530	 12.6996665795907 
1531	 12.1615759560579 
1532	 16.0662438182657 
1533	 17.8013208430246 
1534	 16.7526757439996 
1535	 15.0966403689192 
1536	 12.4359312406471 
1537	 10.8605702974025 
1538	 8.56264428327762 
1539	 7.80439539628804 
1540	 7.94271120627323 
1541	 6.43161483689814 
1542	 6.5930087464059 
1543	 4.59174383773268 
1544	 1.40702433844957 
1545	-0.459410325845467 
1546	-2.08906609098345 
1547	 0.265705511707819 
1548	 3.59869536334412 
1549	 5.5639043142885 
1550	 8.61526013533396 
1551	 9.81610831513626 
1552	 8.5518474033699 
1553	 10.5363043672981 
1554	 11.8730245589949 
1555	 11.4420583751179 
1556	 11.9089404192829 
1557	 9.29097696789845 
1558	 9.08055694925384 
1559	 10.9477262791214 
1560	 12.6069978522705 
1561	 14.7932765446515 
1562	 10.3682219586389 
1563	 5.95802410114624 
1564	 6.66334198817478 
1565	 5.25940654562888 
1566	 5.63197652761764 
1567	 7.2617799364833 
1568	 4.6417000941125 
1569	 2.19034970840444 
1570	 3.88592424395526 
1571	 8.5097019289946 
1572	 10.0572296406812 
1573	 9.9217576710608 
1574	 10.4208015385301 
1575	 7.09246338139577 
1576	 6.05067660158189 
1577	 8.5528461369635 
1578	 8.62381084693022 
1579	 9.06515057621442 
1580	 9.29852032972454 
1581	 6.89816154192928 
1582	 5.20133363246273 
1583	 5.40489669455765 
1584	 3.91545997461536 
1585	 2.34630697427177 
1586	 2.76901629900864 
1587	 1.64466282832122 
1588	 2.03733685497404 
1589	 5.76460704823547 
1590	 7.24124599599347 
1591	 6.80668010174302 
1592	 4.47066625894948 
1593	 1.68447151229022 
1594	 0.697070739649448 
1595	-1.09537838859482 
1596	 0.896438319421038 
1597	 3.46918935086202 
1598	 3.64639529599607 
1599	 6.40428119320755 
1600	 9.3867031556903 
1601	 10.2557604314923 
1602	 10.1860938634423 
1603	 12.3278284189354 
1604	 12.5047325373011 
1605	 9.7365054149098 
1606	 9.36452743034266 
1607	 8.3453284569826 
1608	 5.04578120193797 
1609	 4.64275155037816 
1610	 4.36980682781627 
1611	 1.16594944946928 
1612	 2.96528641848627 
1613	 6.29452850625804 
1614	 7.50113099262057 
1615	 10.3702035997094 
1616	 10.8124306075878 
1617	 9.90096637561754 
1618	 9.95443636842289 
1619	 10.0331248788619 
1620	 12.7470951266697 
1621	 12.7329462714606 
1622	 9.90707990766428 
1623	 9.58979301738079 
1624	 3.24629480613098 
1625	-1.38275684684227 
1626	 0.248591208320435 
1627	-3.27964239135184 
1628	-5.29360162879464 
1629	-5.57436563381467 
1630	-7.17950393997757 
1631	-3.46931076008942 
1632	 0.539670013937845 
1633	 1.65544920430405 
1634	 1.2256085264277 
1635	 0.66153385750263 
1636	 0.142084509279755 
1637	 0.84373934380269 
1638	 0.766125160161949 
1639	 2.19004882191474 
1640	 7.35657463563115 
1641	 7.89059983448281 
1642	 5.04222223095907 
1643	 5.14121298300836 
1644	 5.66883797174461 
1645	 3.70258699061079 
1646	 1.15501500657631 
1647	 0.931792677300934 
1648	-2.70267948834319 
1649	-1.28352988413874 
1650	 9.90188690778272 
1651	 12.0091341131946 
1652	 9.61596030496416 
1653	 8.60876796145301 
1654	 2.65942874173353 
1655	 0.784582998838575 
1656	 2.76337010843309 
1657	 3.48171575041416 
1658	 4.56423487815635 
1659	 4.67257908329653 
1660	 4.85906717510899 
1661	 4.5227635380382 
1662	 2.19753714805296 
1663	 2.13560976142104 
1664	 3.60570075968272 
1665	 4.05993226042404 
1666	 5.23991479967612 
1667	 6.28191507093506 
1668	 6.2478943846514 
1669	 6.23993907060614 
1670	 7.85827421074244 
1671	 6.94662846620007 
1672	 3.56744579831898 
1673	 3.01232990945283 
1674	 1.80058524176043 
1675	 2.38274872408236 
1676	 5.80603274589255 
1677	 7.06603957191317 
1678	 9.08917262135535 
1679	 7.51987807824142 
1680	 2.85259347822983 
1681	 1.7799981012017 
1682	-0.524392440251606 
1683	 0.143065805734375 
1684	 4.8789459961126 
1685	 5.64038339424538 
1686	 4.87931780787966 
1687	 5.78620690880403 
1688	 5.72840875484268 
1689	 4.83513196733296 
1690	 5.69037098958734 
1691	 6.82745114714321 
1692	 7.89595983387562 
1693	 12.0666055749304 
1694	 13.4357760550677 
1695	 11.9722025400081 
1696	 11.4799521705069 
1697	 10.3614535571508 
1698	 9.0812968865016 
1699	 8.49014830411143 
1700	 6.98145458828694 
1701	 4.58330936822696 
1702	 1.99553049673181 
1703	-1.59295511277646 
1704	-4.10820062466743 
1705	-8.0900079138646 
1706	-8.3205268468934 
1707	-6.43463626184715 
1708	-3.2950063928738 
1709	 4.61004497383119 
1710	 7.95568294420583 
1711	 11.1186953950472 
1712	 11.6813231881987 
1713	 8.5590564601332 
1714	 6.5749162887971 
1715	 3.54418188844232 
1716	 0.918853592257315 
1717	-3.30757093622025 
1718	-2.66277156888161 
1719	 1.54443195138478 
1720	 1.42688051262846 
1721	 2.63069579474978 
1722	 2.05852653101471 
1723	-3.46942301194912 
1724	-3.15103781467463 
1725	 0.731171564224104 
1726	 2.46372323516465 
1727	 4.56330981871683 
1728	 3.27642358581772 
1729	 2.73900381136724 
1730	 1.76252414154349 
1731	-4.92956719477487E-02 
1732	-2.97389614018108 
1733	-3.47025652917535 
1734	-3.63669347696889 
1735	-2.77663351298334 
1736	 2.14600585135428 
1737	 4.07697525896828 
1738	 5.41106059154809 
1739	 5.52323389540111 
1740	 2.94641134632119 
1741	 2.04325850466302 
1742	 0.906724649286394 
1743	 0.407240754361588 
1744	 0.353593904352249 
1745	 0.737902733210367 
1746	 2.12303233067668 
1747	 2.61375880055682 
1748	 3.19899285358448 
1749	 4.28381433612038 
1750	 4.32651532939448 
1751	 5.76997394568852 
1752	 9.14809341970744 
1753	 10.5787438989582 
1754	 12.1676102871829 
1755	 11.0156799803928 
1756	 2.21922451290212 
1757	 6.66645298974972 
1758	 10.6983008304434 
1759	 13.460754980875 
1760	 26.9095786307419 
1761	 13.6988936284622 
1762	 3.6868890783383 
1763	 16.4431529902526 
1764	 18.2206710877623 
1765	 22.4471763878536 
1766	 20.8734245132713 
1767	 11.3887727619754 
1768	 9.55933396359153 
1769	 7.45560120773285 
1770	 12.8155065206526 
1771	 14.2367478876133 
1772	-6.83648631923015 
1773	-9.15553976158266 
1774	-14.030784335027 
1775	-10.8756883314459 
1776	 16.2680589750426 
1777	 25.6830218290027 
1778	 30.959830010593 
1779	 16.7700001437851 
1780	 10.4448612917809 
1781	 18.9214744778026 
1782	 17.3532379787093 
1783	 12.6957308818501 
1784	 13.9084173629612 
1785	 17.8332169288467 
1786	 9.0277441094496 
1787	 10.2635214312258 
1788	 27.3724339509218 
1789	 33.0603592573489 
1790	 39.6106095392109 
1791	 43.7848669694868 
1792	 43.6490342702913 
1793	 50.3621833594897 
1794	 47.2001135159297 
1795	 33.1147208771146 
1796	 29.0129949940994 
1797	 31.7704607732645 
1798	 24.1628673580099 
1799	 20.9542391909027 
1800	 10.480310846056 
1801	 6.03497129517603 
1802	 10.2278649879741 
1803	 12.3599656120988 
1804	 32.3601127176323 
1805	 37.3710095078776 
1806	 33.920189483635 
1807	 24.1533101446771 
1808	 16.4068827230351 
1809	 4.57170226128239 
1810	 11.5427358800171 
1811	 17.1802600042433 
1812	 15.9948118070085 
1813	 18.1461693166397 
1814	 17.9094608098892 
1815	 8.48960002629369 
1816	-0.218613693140816 
1817	-13.4760715634286 
1818	-13.8300797451372 
1819	-21.6489608655866 
1820	-19.6315276834778 
1821	-14.821408998288 
1822	 4.33317708807358 
1823	 11.0592839568323 
1824	 22.8728475839818 
1825	 19.6542761985746 
1826	-7.22046012947859 
1827	-11.9891394354194 
1828	-17.068218500454 
1829	-15.9452017452886 
1830	-12.7030233944746 
1831	 13.5467041358818 
1832	 15.8681074346632 
1833	 4.42553865107813 
1834	-1.33193075623242 
1835	-23.9357548244428 
1836	-22.5705833313234 
1837	-0.718717035780456 
1838	 8.8974567664505 
1839	 25.3304929430266 
1840	 46.1796733481529 
1841	 53.6050684824171 
1842	 45.9189525042842 
1843	 42.0982635923306 
1844	 36.9485543996757 
1845	 30.9367239700086 
1846	 13.6981526351425 
1847	 8.66123129772625 
1848	 10.5224431668445 
1849	 9.65787609572842 
1850	 21.963103137447 
1851	 36.9012272324949 
1852	 38.873816505491 
1853	 36.4845120114869 
1854	 33.2499128995767 
1855	 11.7267931771411 
1856	 9.83277047787074 
1857	 18.4371282097976 
1858	 25.7729857940998 
1859	 40.1054795389205 
1860	 58.0308251577937 
1861	 53.468203412968 
1862	 39.4407505740718 
1863	 30.5584067282748 
1864	 7.05526704541996 
1865	-5.60336673332478 
1866	-6.59414907716235 
1867	-10.0491930040489 
1868	-15.7189722641827 
1869	-11.7283978308395 
1870	-9.97656090392213 
1871	-19.1943532803674 
1872	-28.286375611004 
1873	-28.274478924099 
1874	-27.0313188689687 
1875	-27.9752199282682 
1876	-24.888873556052 
1877	-15.0697537628755 
1878	-14.1385276613762 
1879	-15.2714610727436 
1880	 2.9253006876259 
1881	 17.8021094454306 
1882	 25.1520626552378 
1883	 36.5729608436682 
1884	 30.6114853761081 
1885	 21.9640317056804 
1886	 9.54404901750829 
1887	 1.04861560646668 
1888	-9.19697519365006 
1889	-11.2806924054098 
1890	-16.527936682196 
1891	-7.78097433347472 
1892	 5.43048975131226 
1893	 19.9370884178638 
1894	 42.4980520316886 
1895	 57.6645300553314 
1896	 63.7233199926236 
1897	 66.3400338348025 
1898	 58.9649168058886 
1899	 52.5884215214805 
1900	 44.2817725025385 
1901	 31.9216551181484 
1902	 19.9688999189811 
1903	 19.8288940261097 
1904	 16.7095491545528 
1905	 18.2213355129355 
1906	 22.9268849841997 
1907	 25.5572385755612 
1908	 22.2776746158484 
1909	 14.8136151419778 
1910	 11.5197934093498 
1911	-4.07894727593632 
1912	-6.12875881519214 
1913	 2.08543887260535 
1914	 11.5278247636716 
1915	 27.0824972662986 
1916	 42.9871354782868 
1917	 40.0722300855425 
1918	 30.0048333071218 
1919	 22.1604990855617 
1920	-0.303722589733212 
1921	-8.14361327444546 
1922	-2.88862110857169 
1923	-5.82508079662131 
1924	-10.8098532551138 
1925	-11.7209073343288 
1926	-10.580187511641 
1927	-18.0183430174831 
1928	-11.2430913231863 
1929	-15.1733180978643 
1930	-14.1351628073677 
1931	-13.7688546632863 
1932	-10.7926402727532 
1933	-1.88073094956101 
1934	 0.903881743584876 
1935	-3.17664999556417E-02 
1936	 2.41941322849514 
1937	 0.161533003731209 
1938	 3.12350957855163 
1939	 12.6107421824371 
1940	 24.3557110751809 
1941	 24.0170900955502 
1942	 15.9839206292911 
1943	 16.907203571909 
1944	 12.8274383782276 
1945	 13.5061823434214 
1946	 29.2767280239928 
1947	 30.7087134797599 
1948	 20.3949909232597 
1949	 16.1500255229733 
1950	 9.14391370088188 
1951	 4.71423380260524 
1952	 4.76408724000186 
1953	 1.97235491364479 
1954	 1.8363571490543 
1955	 2.24230301804776 
1956	 3.07546677569898 
1957	 6.64648672678912 
1958	 7.76187026132453 
1959	 9.76710162633124 
1960	 7.92839002722669 
1961	 1.94540403545492 
1962	-1.55092023500311 
1963	-11.7254279408438 
1964	-12.9845165769035 
1965	 2.71423015988694E-02 
1966	 1.53213812864676 
1967	 1.10765993094784 
1968	 0.768055945584758 
1969	 0.415512667016057 
1970	-7.54159182202264 
1971	-10.6800809690455 
1972	-9.46147346535564 
1973	-8.48001786226416 
1974	-11.5357150556119 
1975	-8.22945993654901 
1976	 4.41995569509753 
1977	 10.4544074543448 
1978	 22.4127195005315 
1979	 22.3140863440396 
1980	 18.6291829999165 
1981	 3.98821400852748 
1982	 6.46050186074649 
1983	 11.2879619640248 
1984	 14.2142664806527 
1985	 30.1734330463016 
1986	 31.028274687224 
1987	 18.3836081695224 
1988	 12.9670336419359 
1989	 5.93631172855376 
1990	 1.67030895815034 
1991	 0.414912900683223 
1992	-3.40937287317173 
1993	-2.21565257676631 
1994	-1.96131543055164 
1995	 0.112191303848693 
1996	 4.60213869803829 
1997	 7.01676035678975 
1998	 12.3401141388021 
1999	 13.2751180846682 
2000	 11.8008288994001 
2001	 11.0910767372048 
2002	 5.05671360706404 
2003	 1.91673197560477 
2004	 0.467855214260243 
2005	-3.49664832300591 
2006	 4.32259731376544 
2007	 15.9976109830303 
2008	 17.6271425633417 
2009	 27.0223374535518 
2010	 26.3072132784295 
2011	 8.26604799207498 
2012	 8.19939683944483 
2013	 16.3486475994088 
2014	 17.6307729873102 
2015	 24.7367749489227 
2016	 28.0746755021415 
2017	 23.3732417287044 
2018	 22.9413222269772 
2019	 24.430262960396 
2020	 30.5415234249245 
2021	 25.2253405972349 
2022	 23.436920092007 
2023	 18.1726418831807 
2024	-2.60120417663452E-02 
2025	-4.99452815683952 
2026	-9.1730795518339 
2027	-5.82633881511797 
2028	 13.6208738735114 
2029	 20.9180843025087 
2030	 26.598397930546 
2031	 33.9906982313182 
2032	 41.0236841627096 
2033	 34.3406616615029 
2034	 46.2765940164448 
2035	 57.9796129579519 
2036	 60.9037947288844 
2037	 64.5462874099628 
2038	 56.8695688760249 
2039	 34.7308748773368 
2040	 9.29078085762692 
2041	-6.43554016882308 
2042	-14.2677416310287 
2043	-12.874472648877 
2044	-13.8699921884488 
2045	-8.31150222953485 
2046	-4.18095908381908 
2047	-0.68601941347975 
2048	 3.78207235332052 
2049	 11.7935213297663 
2050	 19.5653227241199 
2051	 22.3427542746885 
2052	 17.667840247705 
2053	 18.3154540370301 
2054	 16.6560664835636 
2055	 13.3026441451743 
2056	 13.892999019233 
2057	 9.40942844983614 
2058	 9.02027147578919 
2059	 6.28973226880255 
2060	 3.30822756990002 
2061	-1.74382279058564 
2062	-15.2394187442606 
2063	-16.8141682994725 
2064	-15.6277675821442 
2065	-4.75682073937229 
2066	 9.37875974528136 
2067	 16.6220888470545 
2068	 13.7403502446951 
2069	 11.0779909954439 
2070	 2.67644725592462 
2071	-8.69869292176769 
2072	-7.87636834570506 
2073	-12.0689808932026 
2074	-16.348218496174 
2075	 1.94990501499018 
2076	 12.1787485060227 
2077	 22.3067723838198 
2078	 30.385732106994 
2079	 39.7650725569744 
2080	 39.7203749605472 
2081	 34.4614654185667 
2082	 30.3252588968284 
2083	 17.7097084100559 
2084	 8.26627305960961 
2085	 0.889464253666196 
2086	-1.19441124947239 
2087	 3.01714840947872 
2088	 8.61280391210554 
2089	 13.3135439854991 
2090	 12.4456493732682 
2091	 6.88053944420268 
2092	 2.91065492183128 
2093	 8.29435990724029 
2094	 11.224518921229 
2095	 11.2764464039849 
2096	 15.8659154094753 
2097	 13.3585670800567 
2098	-0.288575702871159 
2099	-3.78935666584615 
2100	-1.69331385555817 
2101	-2.17588467801069 
2102	 10.2473027621651 
2103	 15.1453550797549 
2104	 18.6376963791374 
2105	 25.699104244423 
2106	 23.2145433911417 
2107	 25.3021186439774 
2108	 24.34204216402 
2109	 21.3524144798451 
2110	 28.2754776027615 
2111	 32.7971891589963 
2112	 32.1256823628989 
2113	 28.4922402729098 
2114	 27.4394085697209 
2115	 21.7041712792367 
2116	 18.3271885009617 
2117	 19.9326131612667 
2118	 21.4241548827184 
2119	 21.8536633943499 
2120	 21.5754621547863 
2121	 24.2408597879537 
2122	 21.6223714355547 
2123	 5.30417522209791 
2124	-12.4158210225578 
2125	-27.5868652020267 
2126	-41.3071477536403 
2127	-49.9155804512303 
2128	-48.046788282886 
2129	-42.8264473565688 
2130	-33.0897141120606 
2131	-20.5765940599331 
2132	-18.5369950573899 
2133	-13.0387602311932 
2134	-17.7445175474673 
2135	-16.210182503981 
2136	-6.99132391491692 
2137	-1.27682362788587 
2138	 2.55079288468842 
2139	 10.6001574758807 
2140	 20.2099310333088 
2141	 27.1739114532018 
2142	 30.3064213424947 
2143	 40.7763894726288 
2144	 41.6929639882396 
2145	 28.9164583374855 
2146	 26.2049607952734 
2147	 5.83460061614058 
2148	-9.06406153738518 
2149	-3.51011779393158 
2150	-5.49936259246006 
2151	 0.978221534354323 
2152	 14.2788928145573 
2153	 13.5851097546478 
2154	 12.710395593617 
2155	 18.1268622850287 
2156	 14.9264913783295 
2157	 15.3398016894723 
2158	 11.2839651308483 
2159	 1.86806517703 
2160	-4.1334708195733 
2161	-14.9329242776365 
2162	-18.5776325258736 
2163	-16.598709158745 
2164	-13.7108815568502 
2165	-3.73846383957379 
2166	 11.4656439180655 
2167	 20.4484677910888 
2168	 35.2113286095412 
2169	 41.7482302177815 
2170	 32.0536968932903 
2171	 24.1397550207719 
2172	 15.1099547336646 
2173	 4.71071483522935 
2174	 8.63820170545501 
2175	 16.0503820336908 
2176	 16.8019789286572 
2177	 24.8929333616519 
2178	 25.6569202759645 
2179	 13.3983784139363 
2180	 7.97002008747317 
2181	 3.87667300823754 
2182	-2.18356694072378 
2183	 1.89283564307508 
2184	 27.9858217016077 
2185	 33.2518390041816 
2186	 35.8229061772926 
2187	 33.7229070712092 
2188	 19.2899639396557 
2189	 1.21831196970278 
2190	 7.99894785735693 
2191	 3.46798324150651 
2192	 12.7392765908488 
2193	 27.6997883764117 
2194	 20.3157012117032 
2195	 20.0845434565389 
2196	 19.6888926912958 
2197	 16.184001115503 
2198	 16.8600938881178 
2199	 18.6200603606969 
2200	 15.0647803307636 
2201	 8.35276973804494 
2202	 4.6012787959648 
2203	 0.953870448473199 
2204	-2.28745064355733 
2205	 0.307820998834459 
2206	 9.21264019208807 
2207	 15.0420178000462 
2208	 23.2220664467624 
2209	 38.4575668170837 
2210	 41.8511233719927 
2211	 34.558234349315 
2212	 33.3526894354008 
2213	 26.0241329213883 
2214	 19.766418835034 
2215	 17.6429174515989 
2216	 15.0423855592226 
2217	 14.3472752237774 
2218	 10.3849871754383 
2219	 6.4944901326387 
2220	-5.09986533557083 
2221	-11.8471589721351 
2222	-9.68277392969155 
2223	-14.1086878906702 
2224	-3.88566664367762 
2225	 2.43927741884518 
2226	-7.70967238597495 
2227	 0.800568947884654 
2228	 3.41087653448957 
2229	-3.66276224274593E-02 
2230	 6.67727699244727 
2231	 14.9136249023363 
2232	 14.0055002895123 
2233	 11.9384757736507 
2234	 15.7799605025853 
2235	 15.3981854330239 
2236	 29.7468104535797 
2237	 40.9841054356868 
2238	 49.9787744443989 
2239	 52.2280370855418 
2240	 35.7142185884155 
2241	 28.9808602429197 
2242	 17.4334968327477 
2243	 12.2419809073422 
2244	 11.3937238312089 
2245	 12.4243761835724 
2246	 18.9846993130712 
2247	 21.8950136034026 
2248	 27.0429453920563 
2249	 33.3003759758183 
2250	 39.2721863502326 
2251	 39.9459593909221 
2252	 37.238334015681 
2253	 33.2809005821748 
2254	 24.5106301329931 
2255	 20.9900467252296 
2256	 21.5323984519537 
2257	 19.8818518511267 
2258	 18.2288459143335 
2259	 8.81943972310108 
2260	-9.53886963529045E-02 
2261	-9.98447143517192 
2262	-19.7230479028869 
2263	-20.8024155493914 
2264	-11.7212934543617 
2265	-4.96971749443383 
2266	 2.78494648004235 
2267	 9.3414241247192 
2268	 7.95757695204281 
2269	 13.8074288486231 
2270	 16.1778127016185 
2271	 14.9283631587445 
2272	 11.7154968557199 
2273	 9.74698223524497 
2274	 5.67001109172244 
2275	-7.12487679117796E-02 
2276	-0.961110746405683 
2277	-9.53432040608103 
2278	-13.0751365492585 
2279	-3.7699703082629 
2280	 6.88308321374761 
2281	 15.3267890464299 
2282	 21.6218652409442 
2283	 13.9576285420657 
2284	-0.937318424455702 
2285	-11.8814373740212 
2286	-18.2791004630061 
2287	-21.4708766291338 
2288	-19.6592337747086 
2289	-12.5904905596808 
2290	-7.77278608427488 
2291	-3.00510443457457 
2292	 4.19434357850645 
2293	 16.9331108688158 
2294	 22.6615391105036 
2295	 33.7364187566379 
2296	 30.8361461496442 
2297	 13.4470470601682 
2298	 1.71205991428263 
2299	-23.9302778258837 
2300	-30.4498575093384 
2301	-25.4546090573861 
2302	-19.9099207025583 
2303	 4.12779110833091 
2304	 10.4406189329032 
2305	 9.18656030930349 
2306	 9.01619846517159 
2307	-0.704461560683808 
2308	-7.53168469841164 
2309	-10.8478767013992 
2310	-21.1364912646093 
2311	-28.9006160090906 
2312	-32.4305043289018 
2313	-35.6950195707518 
2314	-30.4406167850014 
2315	-27.9874307650731 
2316	-24.0332062728178 
2317	-5.71289242678457 
2318	-0.918744206820344 
2319	-2.33718545526562 
2320	 6.72470224089726 
2321	 5.74934049088305 
2322	 4.17137313873343 
2323	 9.53942793592576 
2324	 11.4061522993784 
2325	 15.1345617361234 
2326	 21.2518332337842 
2327	 26.7527285654113 
2328	 26.5234643133484 
2329	 21.3269475238966 
2330	 13.00781287436 
2331	 5.06389811523596 
2332	 4.04584852632373 
2333	-4.1783095359238 
2334	-7.95308877581434 
2335	-12.6039048858279 
2336	-22.1135736953478 
2337	-18.1440009378844 
2338	-24.231311396577 
2339	-19.1430176122032 
2340	-4.0813249173064 
2341	 3.21379978328661 
2342	 20.7736095454936 
2343	 25.1623477411741 
2344	 20.0784259852365 
2345	 14.6751347387578 
2346	 6.55060369775171 
2347	-2.91016300813018 
2348	-6.5063231381505 
2349	 1.16900134287871 
2350	 7.42773470664715 
2351	 22.456010129281 
2352	 33.9824142786687 
2353	 30.4491882619347 
2354	 25.3892723569765 
2355	 32.2882194015137 
2356	 37.2862059896636 
2357	 32.3594083691844 
2358	 35.7667695578673 
2359	 27.7002044669998 
2360	 19.0720681335966 
2361	 23.992818039836 
2362	 34.7936053888201 
2363	 46.7310562961609 
2364	 49.0531304178704 
2365	 53.7209657624846 
2366	 52.8791528129789 
2367	 47.8169037092541 
2368	 43.6498284910977 
2369	 37.2237291284706 
2370	 32.7915782555853 
2371	 26.7134486596854 
2372	 28.3251063462276 
2373	 30.0059606824662 
2374	 30.953190242328 
2375	 28.8220774022941 
2376	 18.4684850529857 
2377	 13.5269671874723 
2378	 5.02228359886918 
2379	 3.20224616252829 
2380	 9.18579416630405 
2381	 10.372653095631 
2382	 17.9291982048125 
2383	 17.5978187625137 
2384	 9.57697847076991 
2385	 7.57644925353114 
2386	-5.23218915118317 
2387	-9.57903697069649 
2388	-0.197129976298238 
2389	 6.64807409979707 
2390	 18.0668178303578 
2391	 26.0153333208397 
2392	 28.0998881582856 
2393	 16.7373107827053 
2394	 1.80519515536014 
2395	-11.1328058028397 
2396	-20.1128554482817 
2397	-18.275124845542 
2398	-11.0615037337741 
2399	-5.477323238532 
2400	-2.38335455974012 
2401	-1.21071609747898 
2402	-8.28790469735006 
2403	-0.874273360030639 
2404	 3.29067746093834 
2405	 10.9950222654924 
2406	 37.195989276275 
2407	 46.3433117390909 
2408	 50.3113129396804 
2409	 46.7174419931483 
2410	 29.5098848148333 
2411	 11.4149194198053 
2412	-6.70087509816646 
2413	-18.3220488071774 
2414	-26.6065906930724 
2415	-24.1767938460067 
2416	-10.5689900531065 
2417	-0.635614650836972 
2418	 4.68412109361138 
2419	 4.82166117629406 
2420	 6.90552498756917 
2421	 6.41101242378105 
2422	 8.49483644330616 
2423	 14.9078366483188 
2424	 11.1828605300284 
2425	 10.2817533848629 
2426	 8.42555232223508 
2427	 5.85148875092894 
2428	 14.8739978486211 
2429	 24.9024766317199 
2430	 30.1473487608105 
2431	 30.6758268950054 
2432	 26.7160402397879 
2433	 9.62197710095507 
2434	 3.71581675279853 
2435	 6.17638074403652 
2436	-12.4744677389196 
2437	-12.5581637995511 
2438	-14.3808861073605 
2439	-20.7598213172246 
2440	-8.96020387242854 
2441	-15.0965412494379 
2442	-17.2389428988227 
2443	-7.94733621243347 
2444	-8.95610518508943 
2445	-6.52259856708641 
2446	-3.1451677267657 
2447	-14.5168714830643 
2448	-23.1482461160953 
2449	-21.0819039332616 
2450	-23.147264754658 
2451	-22.51178028416 
2452	-14.3408622873229 
2453	-9.58802988516017 
2454	-10.216329533003 
2455	-9.67779781748335 
2456	-16.2163851212749 
2457	-24.8180214440756 
2458	-21.6887580917842 
2459	-12.7538541259494 
2460	 1.14897473242514 
2461	 10.7380442826905 
2462	 14.7549908304956 
2463	 7.41219093175191 
2464	-9.74308920732356 
2465	-17.6896627991359 
2466	-14.5843504995242 
2467	 6.5233420575638 
2468	 19.9880020893735 
2469	 29.498273920217 
2470	 22.7722978665858 
2471	 19.821456314109 
2472	 10.8192255399129 
2473	 4.35958222325995 
2474	 9.34100589368122 
2475	-9.12073717292543 
2476	-15.440233291168 
2477	-18.9689852926303 
2478	-32.4259387391705 
2479	-20.3185980739819 
2480	-19.2839565203284 
2481	-19.5343118229308 
2482	-2.53379985322084 
2483	 6.69702762895811 
2484	 18.8109670689684 
2485	 24.4842792312733 
2486	 18.8166784724361 
2487	 4.75016503933667 
2488	-2.05049911109331 
2489	 3.33034401780369 
2490	 4.19421628089611 
2491	 9.85654344118694 
2492	 1.43024417314445 
2493	-6.70905120659333 
2494	-6.4371460598543 
2495	-8.22339845939651 
2496	-3.81862308988659 
2497	-9.08145256205053 
2498	-15.9679980831278 
2499	-22.3722210911216 
2500	-22.0685311041073 
