Wavelength	reference_blackPC00000.asd
350	 20.234860780008 
351	 21.8052169884369 
352	 24.1742726695328 
353	 22.9757099069119 
354	 24.3407563893828 
355	 27.0151651901255 
356	 28.7341255585206 
357	 27.713674653047 
358	 28.420665237891 
359	 30.8441022956761 
360	 31.2934894894715 
361	 33.3696099788941 
362	 35.0684997782736 
363	 34.3885967749707 
364	 34.8104061682794 
365	 35.4773470592023 
366	 36.4212177567981 
367	 39.0539933781914 
368	 39.9572623098873 
369	 39.5244646037809 
370	 39.4517139961896 
371	 40.3921100895853 
372	 41.4906284651802 
373	 42.4080922844798 
374	 44.2403248925699 
375	 44.9634606126149 
376	 45.0914207815957 
377	 46.4198835304273 
378	 49.6265072179348 
379	 51.6553999406524 
380	 51.0790047242097 
381	 52.7153921430555 
382	 54.9325014544855 
383	 57.4817239035569 
384	 61.1913497850163 
385	 63.8078642781262 
386	 66.3274840342667 
387	 69.9327576270199 
388	 72.2024397258356 
389	 75.2825388264757 
390	 79.9414173353465 
391	 84.6654048604661 
392	 89.2955996263531 
393	 94.4461608915295 
394	 100.839740222608 
395	 106.129835341299 
396	 111.682168587386 
397	 118.672272380274 
398	 126.600446047853 
399	 135.395572096503 
400	 145.173685931431 
401	 156.196323944443 
402	 167.856682132618 
403	 181.044334932496 
404	 196.487107251623 
405	 212.713055967166 
406	 228.9804763533 
407	 245.426276211475 
408	 263.277138251772 
409	 284.142652713174 
410	 307.515400992076 
411	 331.771142635045 
412	 355.63057254169 
413	 380.483112420393 
414	 407.352643326452 
415	 435.453342320739 
416	 462.679098560334 
417	 489.076615022667 
418	 516.645111402697 
419	 546.775539747087 
420	 576.252133533092 
421	 601.985891949602 
422	 629.647784875617 
423	 657.249363146645 
424	 683.673288125137 
425	 710.244660806073 
426	 737.663122993427 
427	 764.089358835488 
428	 786.46594614955 
429	 808.982819960415 
430	 831.330568214015 
431	 852.819971859455 
432	 874.773356497222 
433	 895.721277583317 
434	 915.457744702032 
435	 935.591922462486 
436	 952.261791180399 
437	 967.347999946074 
438	 984.577417954936 
439	 1001.88881748369 
440	 1018.72395498284 
441	 1035.0994189934 
442	 1052.57506032091 
443	 1066.64382282244 
444	 1078.80357320466 
445	 1096.07830395664 
446	 1111.58837516257 
447	 1125.97770908999 
448	 1141.32519532981 
449	 1154.33891643786 
450	 1167.97400635424 
451	 1183.04543209013 
452	 1194.36093656124 
453	 1207.57610826689 
454	 1223.1005186888 
455	 1237.94162670922 
456	 1252.12047888356 
457	 1265.63877734562 
458	 1279.02607171173 
459	 1294.68109969158 
460	 1311.20543459006 
461	 1328.09683311483 
462	 1347.12668373606 
463	 1364.73675839512 
464	 1381.6562367773 
465	 1400.83381866293 
466	 1420.29200740251 
467	 1439.89446956555 
468	 1460.08481942195 
469	 1482.22599126134 
470	 1505.40425647949 
471	 1529.09999133455 
472	 1553.38640555552 
473	 1578.91266559161 
474	 1605.86420273482 
475	 1634.2115569568 
476	 1664.6868296166 
477	 1694.45293707651 
478	 1722.07110728115 
479	 1752.9487818773 
480	 1786.53403087058 
481	 1821.34480463078 
482	 1854.44169304355 
483	 1889.85384723702 
484	 1927.3673588803 
485	 1965.11313347383 
486	 2004.40118210711 
487	 2044.62012906985 
488	 2085.34660070579 
489	 2127.50188492267 
490	 2172.61007939595 
491	 2219.93406461308 
492	 2265.54934430815 
493	 2314.11193168533 
494	 2364.94268497571 
495	 2415.37042016391 
496	 2466.72012026733 
497	 2518.40152176708 
498	 2570.70916268154 
499	 2627.99731981952 
500	 2685.89314633858 
501	 2743.02337542072 
502	 2801.94040497018 
503	 2859.33171845955 
504	 2916.65951726037 
505	 2977.08360388295 
506	 3038.02469227908 
507	 3100.07444863088 
508	 3164.13947245508 
509	 3230.92871658669 
510	 3297.76068770331 
511	 3363.46518659925 
512	 3428.37049107658 
513	 3498.45794752179 
514	 3571.72540493777 
515	 3642.98943580063 
516	 3717.9920464101 
517	 3793.64738872271 
518	 3866.96408960475 
519	 3939.92870025739 
520	 4015.99141587168 
521	 4095.09901433035 
522	 4172.02684656007 
523	 4250.72499154368 
524	 4330.6497602839 
525	 4409.46348341725 
526	 4488.73107471636 
527	 4569.26228978699 
528	 4650.92473719223 
529	 4730.4269755589 
530	 4809.77301014933 
531	 4890.34483879901 
532	 4972.99894459691 
533	 5052.15631263968 
534	 5128.93454569684 
535	 5207.90206144516 
536	 5285.0807916718 
537	 5361.59203357595 
538	 5438.80933715775 
539	 5514.62709905899 
540	 5589.36881325807 
541	 5663.06910296712 
542	 5734.63555550581 
543	 5807.71814402338 
544	 5880.99711765708 
545	 5950.13767400305 
546	 6019.70570709108 
547	 6089.16136436911 
548	 6157.09754165682 
549	 6224.42603367149 
550	 6290.11007684895 
551	 6353.80024864433 
552	 6416.54236155194 
553	 6480.1294905835 
554	 6542.62742791396 
555	 6599.11876095934 
556	 6656.54279819041 
557	 6712.6946006209 
558	 6763.77849572075 
559	 6813.76224916119 
560	 6862.04163374935 
561	 6907.33143092197 
562	 6948.17883598321 
563	 6981.7794595343 
564	 7008.28412247479 
565	 7030.73690247697 
566	 7048.33964024748 
567	 7059.41041480057 
568	 7062.39422898457 
569	 7060.91709550147 
570	 7053.25841019518 
571	 7039.3583295714 
572	 7026.32837784883 
573	 7009.33142834879 
574	 6987.27065452349 
575	 6963.64994940124 
576	 6932.58605338537 
577	 6894.65715279364 
578	 6853.09018477822 
579	 6806.92802969351 
580	 6758.86949390147 
581	 6711.3182136567 
582	 6662.48004317545 
583	 6621.41153966835 
584	 6588.4775621545 
585	 6550.53790346393 
586	 6512.58594380517 
587	 6473.72036724837 
588	 6431.25484426185 
589	 6395.27691267261 
590	 6365.51205683039 
591	 6340.63604717745 
592	 6326.82627832035 
593	 6317.30934305238 
594	 6307.97594289394 
595	 6299.1641837909 
596	 6300.62575947455 
597	 6316.47056969834 
598	 6346.79298306233 
599	 6379.19229671881 
600	 6410.66195172088 
601	 6442.26619964546 
602	 6481.70005906864 
603	 6519.85050108894 
604	 6552.43540439487 
605	 6589.22844009869 
606	 6628.91150775675 
607	 6676.01387901405 
608	 6740.59141822255 
609	 6815.50957694052 
610	 6900.71782225491 
611	 6996.28247735264 
612	 7087.25612383362 
613	 7175.5972832226 
614	 7262.20384494314 
615	 7336.17444865651 
616	 7408.30829117046 
617	 7482.44301666011 
618	 7554.11365724898 
619	 7627.71362623599 
620	 7703.7753732007 
621	 7781.12773015684 
622	 7858.40933566644 
623	 7936.84396589107 
624	 8017.50334998669 
625	 8099.60514406326 
626	 8179.25489641511 
627	 8255.42280804466 
628	 8332.0662739951 
629	 8404.42510639158 
630	 8471.14302918123 
631	 8532.74608215874 
632	 8593.30560611761 
633	 8650.77901980645 
634	 8702.98169951754 
635	 8754.41821024802 
636	 8805.38969535056 
637	 8854.96027874011 
638	 8899.75359730468 
639	 8944.32451376727 
640	 8990.38563965966 
641	 9037.83642488144 
642	 9089.57536723638 
643	 9142.19459734963 
644	 9191.92776201785 
645	 9246.25825176654 
646	 9301.77958029482 
647	 9356.57105550833 
648	 9415.5998253845 
649	 9472.75960429971 
650	 9528.80772232483 
651	 9591.32753788006 
652	 9653.72646156409 
653	 9719.14608880598 
654	 9792.50077368126 
655	 9862.9526302958 
656	 9931.01484389683 
657	 9999.13023640017 
658	 10070.0352981852 
659	 10143.9571935028 
660	 10220.2291390281 
661	 10296.820580092 
662	 10377.1258335147 
663	 10458.7963256952 
664	 10537.2053208121 
665	 10614.6998436819 
666	 10694.677848557 
667	 10779.1387819812 
668	 10863.6621721139 
669	 10951.8627002781 
670	 11043.9090273619 
671	 11133.4484377342 
672	 11228.2477541174 
673	 11326.4890775187 
674	 11421.5846184761 
675	 11521.2880409773 
676	 11622.5928654602 
677	 11722.6522867617 
678	 11832.0037864517 
679	 11939.0166403316 
680	 12040.4170368773 
681	 12151.7956920987 
682	 12262.1165774709 
683	 12370.0380374924 
684	 12480.0917441991 
685	 12592.5255303251 
686	 12707.6564534851 
687	 12824.6790533403 
688	 12937.1925366114 
689	 13050.8942287817 
690	 13168.8783770103 
691	 13286.8922368723 
692	 13401.5022776763 
693	 13513.6734523164 
694	 13628.4076695868 
695	 13736.6977083537 
696	 13842.7785942652 
697	 13953.1204809998 
698	 14057.9639747063 
699	 14161.2435376108 
700	 14264.077552172 
701	 14355.0942026989 
702	 14448.9047354424 
703	 14545.6279601375 
704	 14630.928862513 
705	 14717.5662171768 
706	 14802.6755733767 
707	 14879.3412231177 
708	 14954.5178899999 
709	 15026.6103775079 
710	 15094.4424410953 
711	 15161.3104787902 
712	 15225.5774358776 
713	 15286.1526960772 
714	 15342.287164477 
715	 15397.3391352952 
716	 15450.7708994812 
717	 15501.1246234227 
718	 15554.7847079499 
719	 15607.1071663378 
720	 15654.1558219566 
721	 15699.6977171789 
722	 15741.4466321168 
723	 15780.4436944419 
724	 15822.0107058565 
725	 15864.9449516292 
726	 15909.9804215852 
727	 15957.4905380907 
728	 15997.8248964603 
729	 16036.4518136055 
730	 16078.0638773698 
731	 16114.7770319157 
732	 16157.5776846791 
733	 16206.6298957776 
734	 16247.5050729816 
735	 16284.8087948552 
736	 16319.7772569045 
737	 16352.6051601746 
738	 16379.7920987016 
739	 16405.138097676 
740	 16431.2168624244 
741	 16451.399433421 
742	 16473.8380380097 
743	 16498.3291210059 
744	 16512.5133403597 
745	 16530.4010930453 
746	 16548.3359581744 
747	 16556.569989547 
748	 16569.013805088 
749	 16580.5534084698 
750	 16585.9532862208 
751	 16590.4869294067 
752	 16591.2639062162 
753	 16588.9460695381 
754	 16589.1240706004 
755	 16588.2901487598 
756	 16583.841071566 
757	 16573.0137954843 
758	 16552.526747493 
759	 16518.0895563915 
760	 16475.4416269921 
761	 16462.3363079354 
762	 16454.7689209929 
763	 16442.8071695019 
764	 16433.0188927666 
765	 16418.5879542046 
766	 16399.8905989849 
767	 16379.3115556582 
768	 16349.9976947746 
769	 16318.2905142501 
770	 16288.6707009048 
771	 16255.0170495467 
772	 16221.7911680181 
773	 16188.5237712295 
774	 16149.5689532239 
775	 16110.8822517075 
776	 16073.6616762274 
777	 16036.8060153324 
778	 15995.0456937425 
779	 15948.7352400301 
780	 15899.367969691 
781	 15849.2176506643 
782	 15798.77880183 
783	 15747.2972396891 
784	 15692.8351883308 
785	 15637.9517390043 
786	 15580.9184754681 
787	 15520.3913578102 
788	 15464.8075900856 
789	 15406.9233771688 
790	 15344.7846830733 
791	 15290.8148189385 
792	 15230.5572950167 
793	 15162.5460150237 
794	 15093.2322442432 
795	 15022.2370661743 
796	 14952.0337100237 
797	 14884.6436385429 
798	 14818.7729423311 
799	 14751.4569618122 
800	 14681.9231645623 
801	 14612.8705367683 
802	 14541.9652253463 
803	 14472.1130882228 
804	 14407.537201211 
805	 14336.9019032096 
806	 14264.9574933536 
807	 14195.2976063223 
808	 14118.6444005835 
809	 14043.0093460859 
810	 13969.9660753192 
811	 13894.0352021679 
812	 13822.0969796726 
813	 13749.779064877 
814	 13671.1756556947 
815	 13597.9064245314 
816	 13524.31449228 
817	 13447.1039518083 
818	 13372.1531591432 
819	 13295.171331842 
820	 13216.3215906216 
821	 13138.4619660494 
822	 13056.8352105791 
823	 12973.1573302646 
824	 12890.8693379591 
825	 12813.8790318499 
826	 12739.2157063576 
827	 12665.1455185194 
828	 12592.3758670332 
829	 12516.3814854313 
830	 12433.8226236459 
831	 12342.44848882 
832	 12243.7603542261 
833	 12144.7305866549 
834	 12051.2382788716 
835	 11964.6981865057 
836	 11885.6715976357 
837	 11814.4028950015 
838	 11750.8235082324 
839	 11698.0025101627 
840	 11649.218009544 
841	 11596.0498557027 
842	 11535.7174600493 
843	 11467.8496082582 
844	 11394.7843441112 
845	 11322.6396365512 
846	 11250.8725301553 
847	 11177.356982887 
848	 11099.8465494076 
849	 11025.3687089504 
850	 10951.3003715384 
851	 10875.9426591918 
852	 10803.4301195457 
853	 10730.4964014655 
854	 10658.2656162727 
855	 10590.8017921021 
856	 10520.6042911567 
857	 10449.3426337193 
858	 10379.2779454555 
859	 10305.6312989594 
860	 10232.4650752551 
861	 10161.4474583997 
862	 10091.0345705149 
863	 10020.1907081075 
864	 9949.28322374625 
865	 9879.25371720877 
866	 9810.66330005738 
867	 9742.55418208391 
868	 9673.8803356713 
869	 9603.17738336317 
870	 9534.90874411769 
871	 9468.74356009221 
872	 9401.92816030483 
873	 9336.13458296452 
874	 9268.46083937967 
875	 9197.30737107763 
876	 9126.37883837034 
877	 9055.13629726267 
878	 8984.45046194362 
879	 8916.21656960516 
880	 8848.80024090156 
881	 8783.06818669066 
882	 8719.28763106284 
883	 8652.76622751438 
884	 8589.45377119424 
885	 8528.71301298451 
886	 8461.89583966155 
887	 8393.80092385782 
888	 8326.94101901813 
889	 8262.58818253342 
890	 8198.35764202257 
891	 8133.45356336031 
892	 8067.68586006869 
893	 8001.50946839091 
894	 7935.95284844102 
895	 7870.7610231113 
896	 7805.00804127489 
897	 7737.18757439315 
898	 7670.19717897776 
899	 7605.85601759546 
900	 7543.41901672747 
901	 7480.07264499094 
902	 7415.76743745456 
903	 7352.11634244879 
904	 7291.77759413348 
905	 7230.85538362148 
906	 7167.35453530666 
907	 7106.01268369197 
908	 7043.8689242433 
909	 6980.19360298976 
910	 6915.58370708115 
911	 6851.27187017639 
912	 6787.28320749941 
913	 6723.90907544107 
914	 6662.98151836284 
915	 6602.57377298187 
916	 6541.65561084015 
917	 6479.90341583516 
918	 6418.91532379737 
919	 6357.53416266572 
920	 6294.94668770286 
921	 6232.77045214526 
922	 6170.76943710901 
923	 6109.1873889817 
924	 6048.60873996505 
925	 5989.49070404089 
926	 5931.71467463478 
927	 5874.47058050078 
928	 5815.57283510336 
929	 5754.74023385874 
930	 5692.01103646865 
931	 5627.79076636936 
932	 5563.14223997479 
933	 5499.17871715088 
934	 5436.60012401931 
935	 5374.84378935632 
936	 5315.99627132107 
937	 5259.62550098571 
938	 5203.34710530574 
939	 5145.25293023275 
940	 5085.59184762067 
941	 5025.91951373584 
942	 4970.41406605329 
943	 4912.39373265029 
944	 4853.43546137264 
945	 4799.76223160062 
946	 4743.44645538666 
947	 4686.36643010436 
948	 4630.94529341671 
949	 4577.20532770961 
950	 4523.03300693947 
951	 4468.79525939203 
952	 4416.08183933915 
953	 4363.42668231692 
954	 4312.11817916033 
955	 4262.12600791787 
956	 4209.86005905681 
957	 4157.81123956496 
958	 4105.65685332707 
959	 4052.1742221953 
960	 3998.36602467582 
961	 3944.63704574362 
962	 3891.96475006677 
963	 3842.57036425412 
964	 3792.09038756389 
965	 3740.05417336073 
966	 6259.33747228998 
967	 6330.36625433553 
968	 6405.53573531089 
969	 6489.92476634781 
970	 6583.19646468041 
971	 6678.59028239163 
972	 6783.33916513019 
973	 6886.58172303763 
974	 6992.20766741785 
975	 7099.65906535725 
976	 7211.71646173635 
977	 7320.92202984443 
978	 7427.67759822738 
979	 7531.96272202291 
980	 7629.54180955861 
981	 7724.75823133493 
982	 7815.96349371737 
983	 7906.64570530501 
984	 7989.44457969206 
985	 8065.54801914372 
986	 8139.5472642544 
987	 8207.90611461137 
988	 8274.30366774044 
989	 8336.14042735875 
990	 8400.28976644161 
991	 8461.11310057957 
992	 8524.58021279627 
993	 8590.11079695702 
994	 8655.8190370118 
995	 8717.1268316634 
996	 8777.69267469795 
997	 8839.20419707254 
998	 8899.82005704719 
999	 8964.3980608308 
1000	 9028.44001984523 
1001	 9090.19278450753 
1002	 9154.44260895892 
1003	 9215.77984150703 
1004	 9278.00893679236 
1005	 9341.52161849601 
1006	 9406.01278783767 
1007	 9467.33439850572 
1008	 9529.04307701511 
1009	 9589.21211822745 
1010	 9646.42924967929 
1011	 9704.62385142183 
1012	 9759.68651316694 
1013	 9815.82178647536 
1014	 9869.00637993352 
1015	 9919.6057253528 
1016	 9973.29641058453 
1017	 10025.0479583708 
1018	 10079.3819470778 
1019	 10133.875550834 
1020	 10183.1995705392 
1021	 10234.4717739576 
1022	 10286.2019364534 
1023	 10337.5024140382 
1024	 10387.265602217 
1025	 10441.3029076839 
1026	 10496.3366551007 
1027	 10549.8556745563 
1028	 10604.0512299481 
1029	 10659.5124476782 
1030	 10714.9758164956 
1031	 10768.9767744388 
1032	 10823.9705545646 
1033	 10881.6597013018 
1034	 10935.2347544287 
1035	 10989.2806145518 
1036	 11047.0703980594 
1037	 11099.39363478 
1038	 11153.3874886781 
1039	 11209.5516506126 
1040	 11263.3813224584 
1041	 11314.8596802671 
1042	 11368.672460872 
1043	 11423.2672158345 
1044	 11476.1840646222 
1045	 11529.5567008033 
1046	 11579.8587491738 
1047	 11625.981695248 
1048	 11670.1440651494 
1049	 11712.407276205 
1050	 11756.4486192244 
1051	 11800.5794659289 
1052	 11843.5071452342 
1053	 11887.2681348473 
1054	 11928.0343926698 
1055	 11968.4584932256 
1056	 12011.8006052607 
1057	 12053.2688625999 
1058	 12095.0737596085 
1059	 12134.7421444751 
1060	 12171.7087969874 
1061	 12209.8777643627 
1062	 12246.5009693016 
1063	 12285.5211431394 
1064	 12326.3329155854 
1065	 12368.3975872868 
1066	 12408.9522201966 
1067	 12446.5286979071 
1068	 12485.1186998586 
1069	 12523.7679286486 
1070	 12566.1791088382 
1071	 12614.1686353395 
1072	 12661.0817882233 
1073	 12711.4835540117 
1074	 12762.3827414294 
1075	 12813.1890235809 
1076	 12866.2910368612 
1077	 12922.6826307538 
1078	 12977.6653823008 
1079	 13032.4053297414 
1080	 13089.2717847372 
1081	 13147.0894111307 
1082	 13206.3158177612 
1083	 13267.4141274854 
1084	 13328.5062175733 
1085	 13391.5047269581 
1086	 13455.8338755822 
1087	 13521.2122334116 
1088	 13593.3348739651 
1089	 13671.622909956 
1090	 13751.8325272811 
1091	 13833.392308888 
1092	 13918.2409252808 
1093	 14005.7816459661 
1094	 14092.4358574582 
1095	 14186.8231098718 
1096	 14285.9278745165 
1097	 14390.8831304793 
1098	 14501.5427862181 
1099	 14616.5394098038 
1100	 14738.9230695125 
1101	 14862.2598204321 
1102	 14986.919079335 
1103	 15117.1892778579 
1104	 15250.1715903415 
1105	 15389.4255926093 
1106	 15532.3894575866 
1107	 15680.8155763966 
1108	 15835.0461664653 
1109	 15988.4540107554 
1110	 16148.9434971042 
1111	 16316.349010465 
1112	 16484.2066699789 
1113	 16654.2084828188 
1114	 16829.7180629999 
1115	 17008.9186772825 
1116	 17191.3101411889 
1117	 17377.2292370158 
1118	 17568.1410745272 
1119	 17762.7063356779 
1120	 17961.2854207 
1121	 18166.8285823995 
1122	 18373.1042014596 
1123	 18580.9067991645 
1124	 18792.5420778395 
1125	 19008.9869463532 
1126	 19224.3840828395 
1127	 19444.4719468622 
1128	 19670.6231184337 
1129	 19891.029658229 
1130	 20112.8510540361 
1131	 20330.7035182226 
1132	 20544.5182779545 
1133	 20759.7926020943 
1134	 20973.5267585751 
1135	 21188.4908029583 
1136	 21407.1003104992 
1137	 21618.4385028126 
1138	 21827.6449838371 
1139	 22034.2524642696 
1140	 22236.3676940291 
1141	 22435.9263109563 
1142	 22632.3262475454 
1143	 22828.6758254493 
1144	 23022.2995472935 
1145	 23214.2193961686 
1146	 23408.6566333781 
1147	 23597.2676708703 
1148	 23781.8911735614 
1149	 23961.8809475874 
1150	 24140.3867436345 
1151	 24316.6826518285 
1152	 24486.7595175528 
1153	 24653.1787680633 
1154	 24815.9150564484 
1155	 24972.3713346652 
1156	 25127.6861138973 
1157	 25282.0422697792 
1158	 25430.7558935712 
1159	 25577.6158631468 
1160	 25716.2338207439 
1161	 25850.224655065 
1162	 25976.5492509063 
1163	 26092.3034770628 
1164	 26207.463682356 
1165	 26318.2929173637 
1166	 26424.6967161308 
1167	 26530.3585479756 
1168	 26627.9759108648 
1169	 26716.9114087168 
1170	 26804.9196744179 
1171	 26889.1554712998 
1172	 26969.420949771 
1173	 27045.1913309454 
1174	 27117.5728480145 
1175	 27186.0607160154 
1176	 27247.6717705736 
1177	 27310.6366078065 
1178	 27373.1086136788 
1179	 27431.7907692632 
1180	 27488.7042372203 
1181	 27541.9754328536 
1182	 27591.0957606828 
1183	 27638.5505482336 
1184	 27682.8207469506 
1185	 27726.4923728899 
1186	 27767.3870899009 
1187	 27808.3774952352 
1188	 27847.9156664817 
1189	 27887.7244321858 
1190	 27927.329855648 
1191	 27966.4332446871 
1192	 28007.8048393085 
1193	 28047.1352865942 
1194	 28081.2521792063 
1195	 28113.4284433551 
1196	 28143.7587330284 
1197	 28170.5843146528 
1198	 28194.9144085687 
1199	 28218.6504223148 
1200	 28238.5767460561 
1201	 28252.0344983205 
1202	 28268.1771083824 
1203	 28285.2162869417 
1204	 28298.1875480494 
1205	 28310.4526770528 
1206	 28319.6150294637 
1207	 28324.11523331 
1208	 28329.0675293395 
1209	 28332.4375076863 
1210	 28335.0487342944 
1211	 28337.6959886046 
1212	 28337.5419987785 
1213	 28334.8271160606 
1214	 28333.7275655357 
1215	 28329.1409391425 
1216	 28325.9105935139 
1217	 28325.4906600234 
1218	 28323.1420750892 
1219	 28322.6172962144 
1220	 28323.5114115323 
1221	 28322.1541950517 
1222	 28319.6210408944 
1223	 28317.092260586 
1224	 28314.0681733636 
1225	 28310.3782524815 
1226	 28305.6590259266 
1227	 28303.0238617306 
1228	 28299.9753220537 
1229	 28297.0227568513 
1230	 28295.1985324409 
1231	 28294.0539542248 
1232	 28292.5030222739 
1233	 28292.7769115531 
1234	 28294.3964692806 
1235	 28297.321121958 
1236	 28302.3464605336 
1237	 28304.978029509 
1238	 28311.0170158426 
1239	 28319.1553471297 
1240	 28327.0136004643 
1241	 28337.8517627366 
1242	 28349.2375370941 
1243	 28359.83169134 
1244	 28370.4386595617 
1245	 28385.7729594699 
1246	 28404.5502246608 
1247	 28424.0408261842 
1248	 28445.5338834155 
1249	 28468.1809775638 
1250	 28490.4469217047 
1251	 28510.5300897865 
1252	 28535.1244680823 
1253	 28562.4575120334 
1254	 28589.9674067293 
1255	 28621.2543713903 
1256	 28651.3734740341 
1257	 28680.6147584382 
1258	 28709.9270966403 
1259	 28738.204449035 
1260	 28768.8576917098 
1261	 28800.6862739396 
1262	 28834.2439999598 
1263	 28869.0221505941 
1264	 28896.3507811866 
1265	 28917.1824530187 
1266	 28933.4344997137 
1267	 28945.0859960294 
1268	 28957.2694737405 
1269	 28966.0109263885 
1270	 28969.304042098 
1271	 28963.0293475709 
1272	 28950.748597996 
1273	 28936.3580340562 
1274	 28920.0065304959 
1275	 28899.8792135075 
1276	 28873.5568106302 
1277	 28841.2694719041 
1278	 28799.4874659413 
1279	 28755.9583051405 
1280	 28708.1948421817 
1281	 28657.9007735417 
1282	 28603.199324127 
1283	 28547.985491104 
1284	 28489.6422910729 
1285	 28429.2064304723 
1286	 28365.1595600684 
1287	 28303.6936727349 
1288	 28239.2841018449 
1289	 28180.6242300737 
1290	 28125.8612530469 
1291	 28072.4527798094 
1292	 28021.5082011804 
1293	 27971.6946216769 
1294	 27927.431494462 
1295	 27889.4228422843 
1296	 27858.011783865 
1297	 27834.8417597906 
1298	 27818.5054372907 
1299	 27805.492190483 
1300	 27797.7057238659 
1301	 27794.1326232106 
1302	 27794.3030992358 
1303	 27798.1478063307 
1304	 27805.2059906936 
1305	 27818.0492191284 
1306	 27831.5350378154 
1307	 27846.2381557246 
1308	 27867.278916643 
1309	 27889.7735835303 
1310	 27915.4675876909 
1311	 27942.2982816335 
1312	 27969.6855135511 
1313	 27997.1442215371 
1314	 28027.2769897185 
1315	 28059.0220014253 
1316	 28093.3270890707 
1317	 28126.8510537429 
1318	 28165.9497117738 
1319	 28209.2169694299 
1320	 28253.7975651372 
1321	 28301.6448672784 
1322	 28358.0636165939 
1323	 28417.3988445269 
1324	 28478.4114273604 
1325	 28546.6778476965 
1326	 28618.6307881558 
1327	 28693.9454495171 
1328	 28780.5926963555 
1329	 28874.8371495142 
1330	 28970.2458933328 
1331	 29069.3913142356 
1332	 29172.2996090601 
1333	 29279.5365503028 
1334	 29395.5343369623 
1335	 29517.8168414549 
1336	 29641.2571526328 
1337	 29768.4421762543 
1338	 29900.2651429215 
1339	 30030.8282713581 
1340	 30159.1345417634 
1341	 30287.9347082776 
1342	 30413.5583905873 
1343	 30537.3571524348 
1344	 30662.4255332106 
1345	 30782.1321370307 
1346	 30890.9387450551 
1347	 30992.8053209457 
1348	 31086.385631687 
1349	 31173.1959385314 
1350	 31254.7234962346 
1351	 31327.3086939448 
1352	 31388.0486546244 
1353	 31449.0948835546 
1354	 31504.2740433793 
1355	 31552.6318759263 
1356	 31605.4823071178 
1357	 31663.3082729072 
1358	 31726.1303877938 
1359	 31801.6553406937 
1360	 31888.3830545939 
1361	 31990.6542499876 
1362	 32104.7481120367 
1363	 32232.5984119964 
1364	 32385.9555365604 
1365	 32547.591374322 
1366	 32725.6795463608 
1367	 32915.8291736535 
1368	 33106.0287973393 
1369	 33289.3196556608 
1370	 33462.9052672946 
1371	 33617.7797126962 
1372	 33744.9951668532 
1373	 33848.7343824577 
1374	 33917.2672375918 
1375	 33959.0174610781 
1376	 33967.365906214 
1377	 33949.5167961261 
1378	 33911.1987145422 
1379	 33854.8962080881 
1380	 33788.7926103778 
1381	 33720.6604451479 
1382	 33656.3545607843 
1383	 33595.398036764 
1384	 33554.4504334904 
1385	 33524.2414178182 
1386	 33507.5192430567 
1387	 33505.4171917978 
1388	 33505.4470565851 
1389	 33515.5739774493 
1390	 33536.9992124871 
1391	 33562.7353044495 
1392	 33610.8524627006 
1393	 33672.3963432874 
1394	 33753.1854926325 
1395	 33854.8944570886 
1396	 33970.0569080805 
1397	 34090.467427621 
1398	 34215.5237954562 
1399	 34341.7686777318 
1400	 34461.946595671 
1401	 34585.1715853356 
1402	 34705.6601285775 
1403	 34809.7278449924 
1404	 34906.384107391 
1405	 34986.1020666175 
1406	 35053.8686414961 
1407	 35117.5214716109 
1408	 35173.5452397139 
1409	 35227.4071038565 
1410	 35277.3364344005 
1411	 35321.4728924525 
1412	 35364.0620288559 
1413	 35402.6598383265 
1414	 35433.9329292689 
1415	 35460.9776842534 
1416	 35481.7513416361 
1417	 35496.4183355268 
1418	 35508.3661326371 
1419	 35514.8891072106 
1420	 35515.4829271323 
1421	 35511.1057125963 
1422	 35498.9864190946 
1423	 35482.2109811191 
1424	 35462.6630392249 
1425	 35437.2085350619 
1426	 35408.5019524901 
1427	 35375.8820480814 
1428	 35338.389565429 
1429	 35296.2538659116 
1430	 35250.2981393645 
1431	 35203.3792408759 
1432	 35155.1559211408 
1433	 35108.9366548593 
1434	 35065.4095527808 
1435	 35018.6349618232 
1436	 34971.6973366058 
1437	 34923.6070382288 
1438	 34871.4144077739 
1439	 34824.413488701 
1440	 34778.8714131666 
1441	 34733.7780072488 
1442	 34694.0835548123 
1443	 34655.0416659772 
1444	 34616.2575041975 
1445	 34577.7744474342 
1446	 34540.528006515 
1447	 34503.3932403519 
1448	 34467.4052673902 
1449	 34428.2822201505 
1450	 34387.9859738674 
1451	 34346.0936011668 
1452	 34301.8055313795 
1453	 34257.2656053051 
1454	 34212.0166637373 
1455	 34169.5999049854 
1456	 34123.2676968081 
1457	 34074.5683245891 
1458	 34026.5136435939 
1459	 33973.4648335618 
1460	 33918.988028097 
1461	 33862.1290778889 
1462	 33798.4080826946 
1463	 33734.7732517158 
1464	 33669.9869411354 
1465	 33603.2966070936 
1466	 33540.0719099328 
1467	 33476.1114990883 
1468	 33410.4448737225 
1469	 33347.3969299402 
1470	 33286.3863205085 
1471	 33230.4657952906 
1472	 33178.0683123912 
1473	 33125.935809867 
1474	 33077.5150968473 
1475	 33027.495473042 
1476	 32977.7047679558 
1477	 32932.2061164886 
1478	 32888.9663539968 
1479	 32846.6060842677 
1480	 32802.406418026 
1481	 32760.0073740003 
1482	 32716.488878088 
1483	 32671.9792854173 
1484	 32628.9649833146 
1485	 32583.1857122922 
1486	 32538.9181886817 
1487	 32498.0425151827 
1488	 32458.8081193614 
1489	 32418.8402088569 
1490	 32374.5922265708 
1491	 32328.0944906713 
1492	 32283.1182366746 
1493	 32239.2777201115 
1494	 32199.0772237049 
1495	 32161.5691094572 
1496	 32121.5062283456 
1497	 32083.2066054724 
1498	 32046.7942464476 
1499	 32007.5650752529 
1500	 31967.4536390827 
1501	 31926.3390529151 
1502	 31882.1794400314 
1503	 31840.2630515619 
1504	 31799.1125658992 
1505	 31755.3947584539 
1506	 31715.2241165434 
1507	 31674.5832560266 
1508	 31633.6573160065 
1509	 31597.0075272767 
1510	 31556.7649124872 
1511	 31515.602627355 
1512	 31476.5364209466 
1513	 31435.8612950122 
1514	 31396.5955768055 
1515	 31356.240343153 
1516	 31314.425225293 
1517	 31273.4875129684 
1518	 31230.7837550486 
1519	 31188.0780727188 
1520	 31145.3249301063 
1521	 31100.2994072914 
1522	 31056.0234571011 
1523	 31014.0172772923 
1524	 30969.18398492 
1525	 30922.078985965 
1526	 30877.3315390043 
1527	 30831.3682238346 
1528	 30784.13487539 
1529	 30739.4041294745 
1530	 30693.6607971829 
1531	 30646.7831636688 
1532	 30603.2277795927 
1533	 30556.6117699233 
1534	 30508.6126259554 
1535	 30461.9195944075 
1536	 30410.9595295788 
1537	 30361.6285603251 
1538	 30311.6419688915 
1539	 30259.8987489274 
1540	 30209.9617800551 
1541	 30160.49430203 
1542	 30111.9990564414 
1543	 30061.7474303577 
1544	 30011.2802182588 
1545	 29959.1131871425 
1546	 29904.1597579915 
1547	 29849.9622075165 
1548	 29794.0109008074 
1549	 29737.0907050685 
1550	 29683.0522014625 
1551	 29627.4016564696 
1552	 29571.2663244089 
1553	 29517.3503195467 
1554	 29459.6578699034 
1555	 29404.2724383594 
1556	 29350.3178634708 
1557	 29290.2105019542 
1558	 29232.5371159315 
1559	 29174.5776322704 
1560	 29111.8647256122 
1561	 29052.0490433374 
1562	 28990.5233151561 
1563	 28928.7552794712 
1564	 28869.0831823189 
1565	 28805.7265951099 
1566	 28745.6564820696 
1567	 28685.1264420369 
1568	 28621.0443922497 
1569	 28559.1176617509 
1570	 28493.8891251348 
1571	 28427.997351669 
1572	 28365.7284319975 
1573	 28299.1615144518 
1574	 28229.6825776928 
1575	 28162.7839445997 
1576	 28092.8088331383 
1577	 28023.5393076956 
1578	 27958.0769974796 
1579	 27887.7626350758 
1580	 27817.4517957857 
1581	 27748.8066461567 
1582	 27677.0241014076 
1583	 27606.3331068476 
1584	 27534.2996977091 
1585	 27461.1540776908 
1586	 27390.3459921732 
1587	 27318.7908520981 
1588	 27246.2569982466 
1589	 27173.9293721715 
1590	 27100.931164925 
1591	 27028.5031820215 
1592	 26956.6154812179 
1593	 26886.043131898 
1594	 26817.0913575338 
1595	 26746.5815496918 
1596	 26678.4218572536 
1597	 26604.9182589718 
1598	 26525.5282115276 
1599	 26450.5245983235 
1600	 26373.1061219327 
1601	 26296.0723294412 
1602	 26224.8702691514 
1603	 26151.9246096913 
1604	 26077.8580750596 
1605	 26003.7879875098 
1606	 25927.0496416546 
1607	 25846.9304973957 
1608	 25763.5466309393 
1609	 25684.1785568644 
1610	 25602.7518345824 
1611	 25519.1692344207 
1612	 25439.4386368718 
1613	 25355.0500764034 
1614	 25270.9060614483 
1615	 25188.999168471 
1616	 25103.4760043291 
1617	 25018.604002188 
1618	 24932.994102722 
1619	 24844.2068429111 
1620	 24755.1128591585 
1621	 24662.9933114502 
1622	 24568.3510934601 
1623	 24473.3932041352 
1624	 24377.5387553454 
1625	 24281.177140446 
1626	 24187.3895942687 
1627	 24096.0898359718 
1628	 24003.8687377525 
1629	 23912.24502673 
1630	 23818.2524947858 
1631	 23723.8298134202 
1632	 23632.9254098371 
1633	 23542.8591070492 
1634	 23452.7006847956 
1635	 23363.6596024017 
1636	 23272.7483624952 
1637	 23185.5275670485 
1638	 23103.4446817635 
1639	 23019.0585684009 
1640	 22936.3652883425 
1641	 22851.8170115992 
1642	 22765.9116041979 
1643	 22678.8505247631 
1644	 22591.6372159745 
1645	 22501.7943722765 
1646	 22410.3400170631 
1647	 22316.4423021768 
1648	 22218.589298244 
1649	 22121.7211737427 
1650	 22025.4716917215 
1651	 21925.2335653193 
1652	 21826.5296387889 
1653	 21719.7599443348 
1654	 21608.6540764321 
1655	 21490.4928208842 
1656	 21365.4137921976 
1657	 21237.0123114088 
1658	 21105.0268491195 
1659	 20963.2994199095 
1660	 20818.9310061033 
1661	 20659.2093635849 
1662	 20484.4030868799 
1663	 20308.6968153051 
1664	 20121.496098854 
1665	 19937.1931594914 
1666	 19748.3204110641 
1667	 19565.2075832763 
1668	 19379.6332129512 
1669	 19203.2952946498 
1670	 19029.7145529261 
1671	 18869.6374466642 
1672	 18714.9638299789 
1673	 18576.3403445046 
1674	 18452.4981460547 
1675	 18335.0430896435 
1676	 18228.7362708448 
1677	 18129.5670043618 
1678	 18038.8471255993 
1679	 17955.2954448934 
1680	 17880.2417924133 
1681	 17812.5349551775 
1682	 17753.0133428115 
1683	 17699.7010143215 
1684	 17650.3038012412 
1685	 17605.9418169971 
1686	 17561.361165277 
1687	 17521.4200957295 
1688	 17484.4891592854 
1689	 17452.0517502498 
1690	 17419.6195804446 
1691	 17390.3489287572 
1692	 17360.182904961 
1693	 17330.8954615393 
1694	 17299.5127915234 
1695	 17268.4169493533 
1696	 17234.6450877577 
1697	 17195.4339040172 
1698	 17160.4147504479 
1699	 17125.2555462346 
1700	 17092.0653204438 
1701	 17062.0050951188 
1702	 17032.4338478824 
1703	 17003.8129032807 
1704	 16975.5833202998 
1705	 16949.8693791612 
1706	 16922.0346925208 
1707	 16893.5967928275 
1708	 16864.3411098344 
1709	 16834.105631209 
1710	 16803.3889038189 
1711	 16770.6538496955 
1712	 16740.7279051564 
1713	 16712.9523547825 
1714	 16681.7762206812 
1715	 16651.0078966598 
1716	 16618.703028632 
1717	 16581.4626523269 
1718	 16550.2436458529 
1719	 16522.1538889864 
1720	 16492.2823835992 
1721	 16464.2151063773 
1722	 16434.7022014733 
1723	 16403.1876787035 
1724	 16374.8310544906 
1725	 16347.1885014166 
1726	 16324.1607506476 
1727	 16299.569567926 
1728	 16275.9500555404 
1729	 16251.9021236529 
1730	 16224.4232266442 
1731	 16202.8368962654 
1732	 16181.8533253784 
1733	 16158.4093948412 
1734	 16131.9911869556 
1735	 16108.9775867137 
1736	 16085.9969281794 
1737	 16065.610095634 
1738	 16051.2277047772 
1739	 16032.7529565831 
1740	 16011.3133382529 
1741	 15992.5009797099 
1742	 15973.2139714194 
1743	 15955.0419429672 
1744	 15938.8470125634 
1745	 15924.1195002509 
1746	 15909.5760450694 
1747	 15896.1086788687 
1748	 15885.9741233956 
1749	 15873.2879762928 
1750	 15860.344182055 
1751	 15846.8133374898 
1752	 15830.5069011631 
1753	 15819.2748217332 
1754	 15809.850950478 
1755	 15801.9762025438 
1756	 9312.92592312461 
1757	 9429.63691916174 
1758	 9514.28778406624 
1759	 9633.09479464184 
1760	 9767.08960137067 
1761	 9906.34517723511 
1762	 10044.3194176701 
1763	 10187.8632590018 
1764	 10316.6095211079 
1765	 10428.4261094746 
1766	 10543.0117183726 
1767	 10652.4211846142 
1768	 10765.5361676544 
1769	 10867.9126040513 
1770	 10985.9107280192 
1771	 11115.2308428384 
1772	 11252.3317263929 
1773	 11378.7671909087 
1774	 11507.3580818867 
1775	 11633.097553959 
1776	 11741.4711052481 
1777	 11863.2214576231 
1778	 11992.6392824452 
1779	 12131.1794278465 
1780	 12258.1007313635 
1781	 12400.1700832107 
1782	 12534.0796626309 
1783	 12654.2807617175 
1784	 12781.4244713764 
1785	 12908.4310998763 
1786	 13037.7485571654 
1787	 13164.6810278658 
1788	 13288.4303584645 
1789	 13416.8074870366 
1790	 13526.9059432024 
1791	 13636.8246036162 
1792	 13772.58312376 
1793	 13896.8814986718 
1794	 14023.9841349623 
1795	 14160.5667321091 
1796	 14296.8571424001 
1797	 14411.8305010183 
1798	 14538.5909856998 
1799	 14663.9452061027 
1800	 14780.851222356 
1801	 14896.6271294986 
1802	 15004.9543832874 
1803	 15104.3340867253 
1804	 15194.0320273544 
1805	 15278.081781909 
1806	 15352.5200336893 
1807	 15422.7360147889 
1808	 15497.5889017393 
1809	 15574.6155034971 
1810	 15651.1155865094 
1811	 15725.2189582296 
1812	 15782.5740235161 
1813	 15822.2648178212 
1814	 15862.1317975374 
1815	 15883.898008327 
1816	 15919.7940436512 
1817	 15953.7332762095 
1818	 15996.021819 
1819	 16053.0740528587 
1820	 16099.4709584978 
1821	 16139.1040392976 
1822	 16173.0978828628 
1823	 16208.6700918291 
1824	 16237.5773964972 
1825	 16266.6311656712 
1826	 16301.0527327598 
1827	 16326.7559519719 
1828	 16346.643617426 
1829	 16360.4557116005 
1830	 16376.2020422994 
1831	 16382.2139943744 
1832	 16404.5922106719 
1833	 16426.1551420851 
1834	 16462.3110843391 
1835	 16517.2883362293 
1836	 16566.7054935986 
1837	 16618.9895497294 
1838	 16676.9762270879 
1839	 16740.0222231042 
1840	 16801.9320158149 
1841	 16865.5532080935 
1842	 16939.5896060886 
1843	 17001.820803618 
1844	 17055.9762513338 
1845	 17114.446532112 
1846	 17172.2196616559 
1847	 17229.9551578374 
1848	 17289.3739328972 
1849	 17344.7630607408 
1850	 17412.0160689392 
1851	 17464.9848775642 
1852	 17515.6861657629 
1853	 17570.9066948864 
1854	 17613.6514931021 
1855	 17644.9606663294 
1856	 17675.5807173068 
1857	 17704.350857052 
1858	 17721.2326224138 
1859	 17746.959289452 
1860	 17743.1977702202 
1861	 17724.8316988716 
1862	 17694.2505995381 
1863	 17658.1256525371 
1864	 17587.2033472657 
1865	 17555.832126947 
1866	 17520.9424190523 
1867	 17521.8100895198 
1868	 17546.8054701593 
1869	 17583.0787183409 
1870	 17655.7253781099 
1871	 17758.136114666 
1872	 17865.0726041177 
1873	 17999.0474755053 
1874	 18136.496090855 
1875	 18253.8053566155 
1876	 18358.319288313 
1877	 18456.3228531936 
1878	 18539.4728066211 
1879	 18600.9422576606 
1880	 18645.5501275602 
1881	 18682.442419422 
1882	 18697.0844350777 
1883	 18691.5484426967 
1884	 18682.8718500862 
1885	 18662.3151084305 
1886	 18633.8874373054 
1887	 18604.8496720806 
1888	 18575.5564008647 
1889	 18536.8569251661 
1890	 18492.397929671 
1891	 18437.844249391 
1892	 18372.9610385527 
1893	 18298.0704754254 
1894	 18216.2978728027 
1895	 18142.616761579 
1896	 18075.6307169556 
1897	 18021.3329667135 
1898	 17981.4453730661 
1899	 17944.6426241846 
1900	 17915.4670405452 
1901	 17891.542578306 
1902	 17879.1301302919 
1903	 17875.0378294173 
1904	 17883.0467427057 
1905	 17903.7356911688 
1906	 17916.3720704411 
1907	 17922.6113497747 
1908	 17932.9343183486 
1909	 17946.2268935704 
1910	 17948.8676819001 
1911	 17948.9679717838 
1912	 17949.4938661724 
1913	 17941.9638909126 
1914	 17931.2732113965 
1915	 17931.0704319122 
1916	 17937.3987399651 
1917	 17946.6530225289 
1918	 17965.6230859774 
1919	 17992.6928814769 
1920	 18031.9486717805 
1921	 18069.5468700161 
1922	 18121.0360368961 
1923	 18159.3257723453 
1924	 18193.6594554136 
1925	 18225.08006942 
1926	 18249.528527315 
1927	 18276.2432438646 
1928	 18292.4162073781 
1929	 18328.5241747443 
1930	 18348.9264298103 
1931	 18364.0881822866 
1932	 18374.4884501472 
1933	 18379.4682584808 
1934	 18380.1940544709 
1935	 18377.7117655618 
1936	 18371.6450124298 
1937	 18350.9180713271 
1938	 18343.6204898767 
1939	 18342.6805352881 
1940	 18337.0339621025 
1941	 18334.8247246576 
1942	 18345.0042317397 
1943	 18339.7594582432 
1944	 18326.5140147005 
1945	 18314.1318926421 
1946	 18297.3338401296 
1947	 18280.6526690311 
1948	 18262.4598766325 
1949	 18243.2579352751 
1950	 18219.9430377736 
1951	 18199.8436068182 
1952	 18186.6203236647 
1953	 18162.4136564762 
1954	 18139.6444509248 
1955	 18120.9016252504 
1956	 18090.7187015329 
1957	 18057.9858743684 
1958	 18012.3222351776 
1959	 17946.4548450898 
1960	 17896.6349220119 
1961	 17838.3062522937 
1962	 17792.0915878555 
1963	 17775.0251800382 
1964	 17733.8594740013 
1965	 17679.8331470794 
1966	 17629.9378862195 
1967	 17574.7537691424 
1968	 17507.2073960072 
1969	 17444.6619035992 
1970	 17390.5289670911 
1971	 17321.5981256589 
1972	 17239.0279607659 
1973	 17162.0902950967 
1974	 17081.5423806813 
1975	 17001.789231422 
1976	 16919.8565078381 
1977	 16844.0657110038 
1978	 16775.2821053824 
1979	 16699.9286334954 
1980	 16618.9545454189 
1981	 16536.0077756399 
1982	 16455.3595397311 
1983	 16367.877403594 
1984	 16281.6539218354 
1985	 16208.0201308718 
1986	 16119.1276974487 
1987	 16011.5692320881 
1988	 15917.3669784414 
1989	 15821.5126963551 
1990	 15729.4481957825 
1991	 15651.6386843562 
1992	 15560.3822892197 
1993	 15467.9010583397 
1994	 15381.6678891788 
1995	 15285.0203988473 
1996	 15178.7896737706 
1997	 15084.1161704175 
1998	 14985.4175307552 
1999	 14895.1881177462 
2000	 14827.093009482 
2001	 14730.4668704768 
2002	 14613.3500177304 
2003	 14514.5729724402 
2004	 14403.3283377999 
2005	 14308.3740509781 
2006	 14235.2660775817 
2007	 14161.9545203733 
2008	 14074.5949235013 
2009	 13978.0656832264 
2010	 13887.8496695773 
2011	 13797.1477782776 
2012	 13698.6272857556 
2013	 13598.3875879499 
2014	 13502.801147917 
2015	 13396.0434619794 
2016	 13301.7442305547 
2017	 13220.2884341566 
2018	 13133.0948806304 
2019	 13048.6030415447 
2020	 12962.490880246 
2021	 12866.1956152239 
2022	 12780.9519171659 
2023	 12687.4540047986 
2024	 12598.0153113521 
2025	 12515.7758732662 
2026	 12443.5851819659 
2027	 12362.0520764071 
2028	 12279.4160416963 
2029	 12200.3799730636 
2030	 12119.0189471299 
2031	 12041.1622943519 
2032	 11968.1635539001 
2033	 11895.3461370249 
2034	 11824.7113348858 
2035	 11746.552159059 
2036	 11669.4827624149 
2037	 11602.7893774693 
2038	 11536.6588642096 
2039	 11475.2154490479 
2040	 11420.3642018915 
2041	 11361.2361384683 
2042	 11304.403461939 
2043	 11249.1559005813 
2044	 11193.7409106736 
2045	 11137.7730223198 
2046	 11086.3776006142 
2047	 11035.3949129756 
2048	 10985.6597267399 
2049	 10940.517817103 
2050	 10894.9486469066 
2051	 10844.9947993323 
2052	 10796.695699093 
2053	 10748.1899864414 
2054	 10696.7114072044 
2055	 10646.3011882508 
2056	 10589.9534810179 
2057	 10536.335934186 
2058	 10483.0458641055 
2059	 10434.166013111 
2060	 10391.4095526271 
2061	 10350.5712753394 
2062	 10314.0639822716 
2063	 10276.3759006581 
2064	 10246.1265384338 
2065	 10198.8398323803 
2066	 10150.7190500046 
2067	 10101.5451633541 
2068	 10042.3062413139 
2069	 9988.40529602074 
2070	 9942.62903714077 
2071	 9891.90519714753 
2072	 9842.02501119935 
2073	 9797.6405058414 
2074	 9745.35170353329 
2075	 9690.22397517387 
2076	 9643.21238181709 
2077	 9599.75492064678 
2078	 9558.57650348918 
2079	 9532.23686566942 
2080	 9492.27475806435 
2081	 9450.48313058546 
2082	 9394.327857118 
2083	 9341.3471955578 
2084	 9278.42448520738 
2085	 9218.50045029947 
2086	 9168.40631246795 
2087	 9120.00149331687 
2088	 9075.2190126211 
2089	 9025.20535773483 
2090	 8982.44068340547 
2091	 8929.07442395865 
2092	 8867.039822401 
2093	 8820.85205932122 
2094	 8769.50612559474 
2095	 8718.92718066132 
2096	 8676.10947004334 
2097	 8625.84204222586 
2098	 8569.34696100666 
2099	 8516.03509619594 
2100	 8458.83522766884 
2101	 8400.061779558 
2102	 8337.74776486125 
2103	 8267.76775686618 
2104	 8200.2313782337 
2105	 8143.28469738199 
2106	 8090.06798251307 
2107	 8029.31195168209 
2108	 7962.05851620901 
2109	 7890.78939218982 
2110	 7819.13903834415 
2111	 7754.04085958803 
2112	 7704.91545661578 
2113	 7649.20123829914 
2114	 7592.76369137697 
2115	 7538.39418657301 
2116	 7483.03558732208 
2117	 7424.26937537733 
2118	 7371.12996635036 
2119	 7320.60382030814 
2120	 7267.1247515776 
2121	 7218.69156898223 
2122	 7157.95181830172 
2123	 7098.7378826128 
2124	 7037.40850629161 
2125	 6969.60952530034 
2126	 6914.18478225539 
2127	 6864.0508174927 
2128	 6821.80233816167 
2129	 6794.45950057646 
2130	 6768.29986919919 
2131	 6739.43637555692 
2132	 6704.23690319276 
2133	 6660.12891066278 
2134	 6613.63659971941 
2135	 6571.12438755527 
2136	 6524.80042643442 
2137	 6492.72934083976 
2138	 6469.35276185371 
2139	 6444.28786974011 
2140	 6427.76689499489 
2141	 6408.61498663015 
2142	 6381.16027794655 
2143	 6367.11221606244 
2144	 6348.07673799121 
2145	 6324.82847886002 
2146	 6323.35356199156 
2147	 6328.55156567698 
2148	 6337.85142467611 
2149	 6363.71336640338 
2150	 6382.60133871788 
2151	 6397.10299474678 
2152	 6426.92637037087 
2153	 6462.4267488868 
2154	 6506.99161261019 
2155	 6551.59038517624 
2156	 6594.77617887425 
2157	 6642.20684437125 
2158	 6684.63804824981 
2159	 6726.36838375626 
2160	 6765.59080942367 
2161	 6802.04404791772 
2162	 6834.46216483211 
2163	 6865.54698995982 
2164	 6885.56696872903 
2165	 6909.09723303282 
2166	 6933.52549287028 
2167	 6957.45979271102 
2168	 6985.52646544418 
2169	 7009.74126606983 
2170	 7030.94345065876 
2171	 7046.09049085633 
2172	 7063.03293015381 
2173	 7082.30867728745 
2174	 7100.37901520093 
2175	 7125.22500167307 
2176	 7154.13454635797 
2177	 7187.21663278723 
2178	 7224.87267353102 
2179	 7261.91762808339 
2180	 7289.7766189674 
2181	 7313.32115601208 
2182	 7329.4075410723 
2183	 7337.00731751228 
2184	 7329.20897256779 
2185	 7335.14766127588 
2186	 7346.04318611185 
2187	 7347.96284896966 
2188	 7353.96791527532 
2189	 7348.99142626668 
2190	 7329.04579326134 
2191	 7289.48673239829 
2192	 7254.41423181287 
2193	 7221.69935090481 
2194	 7196.84501107886 
2195	 7180.26414954628 
2196	 7161.38715377062 
2197	 7144.08876078603 
2198	 7120.26516406909 
2199	 7097.45118103952 
2200	 7081.609414352 
2201	 7071.22092618166 
2202	 7048.93358945135 
2203	 7034.32167423784 
2204	 7026.04575823825 
2205	 7010.42271660526 
2206	 7015.42299707373 
2207	 7013.0081785693 
2208	 7010.74728912333 
2209	 7019.94525387263 
2210	 7019.66400303137 
2211	 7027.45092817371 
2212	 7016.12746448548 
2213	 6985.51619292708 
2214	 6959.52266696735 
2215	 6922.71757860469 
2216	 6888.08010019348 
2217	 6858.280153677 
2218	 6827.26575086921 
2219	 6791.80146366235 
2220	 6758.36562153204 
2221	 6733.38985413399 
2222	 6695.45347047359 
2223	 6659.68394712612 
2224	 6621.07483737092 
2225	 6569.58393705636 
2226	 6520.07232421299 
2227	 6469.4795147077 
2228	 6422.90158989071 
2229	 6385.21700256652 
2230	 6356.99309983277 
2231	 6319.07735965064 
2232	 6277.1540337338 
2233	 6240.40917880861 
2234	 6196.55596976393 
2235	 6159.81585753443 
2236	 6124.25046819339 
2237	 6077.3769781129 
2238	 6029.62400431126 
2239	 5987.10862783298 
2240	 5945.02971569708 
2241	 5907.46528001583 
2242	 5872.22081469404 
2243	 5832.7198318567 
2244	 5790.33876704484 
2245	 5750.38469962425 
2246	 5708.0373770778 
2247	 5667.46759775872 
2248	 5621.02599243579 
2249	 5584.75863917486 
2250	 5554.92065325207 
2251	 5526.0256273007 
2252	 5508.85460150013 
2253	 5487.23641161579 
2254	 5464.11078423617 
2255	 5443.81915197496 
2256	 5424.35817949588 
2257	 5403.87110407548 
2258	 5383.56772341791 
2259	 5348.95825856403 
2260	 5321.23818298507 
2261	 5288.20330680261 
2262	 5251.35200200277 
2263	 5227.23275081265 
2264	 5197.64812358819 
2265	 5155.80289858255 
2266	 5119.95813874088 
2267	 5079.0448991899 
2268	 5033.1860183773 
2269	 5002.4525877477 
2270	 4967.2109368796 
2271	 4931.91506474065 
2272	 4903.87049352361 
2273	 4865.03670567786 
2274	 4827.54170395108 
2275	 4796.08041569163 
2276	 4763.77981751393 
2277	 4735.91171021208 
2278	 4709.0153171483 
2279	 4675.60716760647 
2280	 4639.72665544117 
2281	 4603.6666645697 
2282	 4564.54758691343 
2283	 4529.09449191152 
2284	 4490.52976510335 
2285	 4451.71929170722 
2286	 4417.96714938498 
2287	 4388.36638659754 
2288	 4355.89034094807 
2289	 4326.29353043666 
2290	 4294.30154330567 
2291	 4259.57907965367 
2292	 4229.07618730791 
2293	 4200.5726537828 
2294	 4169.39211137246 
2295	 4139.49995345405 
2296	 4105.81783696928 
2297	 4064.68140351871 
2298	 4037.39008257201 
2299	 4015.41441607839 
2300	 3993.58533417509 
2301	 3984.49495740151 
2302	 3964.24696092389 
2303	 3937.11189628997 
2304	 3909.71759747799 
2305	 3876.88678341004 
2306	 3842.41900146798 
2307	 3801.69676469904 
2308	 3772.35234436344 
2309	 3743.44672754755 
2310	 3729.02495875383 
2311	 3715.32930158016 
2312	 3697.35344598037 
2313	 3673.03657368127 
2314	 3646.52650903598 
2315	 3621.73497390641 
2316	 3598.45909121604 
2317	 3582.85488009115 
2318	 3562.45100818698 
2319	 3532.85643101712 
2320	 3505.54100213924 
2321	 3468.32311100972 
2322	 3425.66237612474 
2323	 3399.30596350919 
2324	 3373.2125962589 
2325	 3337.92154198423 
2326	 3314.01174742277 
2327	 3284.68226162953 
2328	 3244.49290344898 
2329	 3226.42921953198 
2330	 3199.0319332832 
2331	 3156.26622426257 
2332	 3120.48550413029 
2333	 3066.88831453896 
2334	 3022.81659523423 
2335	 2995.26454419216 
2336	 2969.18826609326 
2337	 2946.05186732248 
2338	 2913.69507333999 
2339	 2879.23027068784 
2340	 2843.64736495546 
2341	 2821.5798548416 
2342	 2801.09916284835 
2343	 2774.67647452728 
2344	 2748.70047321751 
2345	 2711.05384293145 
2346	 2676.55964307461 
2347	 2653.48937163536 
2348	 2632.14192232912 
2349	 2606.20932544176 
2350	 2575.04849630355 
2351	 2537.5371386785 
2352	 2504.00221954998 
2353	 2481.24095909016 
2354	 2467.37434246822 
2355	 2465.75744284733 
2356	 2458.13989868005 
2357	 2447.06488050543 
2358	 2441.42393943287 
2359	 2418.53944827518 
2360	 2399.85098358799 
2361	 2381.4010350302 
2362	 2348.84833817441 
2363	 2326.10833820287 
2364	 2298.8474469378 
2365	 2267.39640711941 
2366	 2245.23388875217 
2367	 2210.97790047152 
2368	 2176.70569863127 
2369	 2152.18003028437 
2370	 2112.98719566609 
2371	 2090.60718853185 
2372	 2076.86247316591 
2373	 2051.91522061691 
2374	 2051.41223996025 
2375	 2048.13342871002 
2376	 2028.76683822996 
2377	 2017.18714630549 
2378	 1994.40612104741 
2379	 1965.87806993683 
2380	 1957.91865194391 
2381	 1945.12144965594 
2382	 1928.77261967568 
2383	 1922.38167061329 
2384	 1896.92632617678 
2385	 1872.24236603997 
2386	 1853.59533874108 
2387	 1826.63665605426 
2388	 1808.61894434228 
2389	 1783.97839302619 
2390	 1759.88640314737 
2391	 1741.11508100214 
2392	 1717.46433131454 
2393	 1699.2109415482 
2394	 1680.28625227349 
2395	 1667.63389551611 
2396	 1653.05154565905 
2397	 1642.50512583849 
2398	 1646.03732676372 
2399	 1632.67829077901 
2400	 1615.23786469768 
2401	 1601.29360805573 
2402	 1562.14429329431 
2403	 1526.01999203595 
2404	 1504.71729328522 
2405	 1478.6077285629 
2406	 1472.1292120125 
2407	 1475.22854844413 
2408	 1471.61126304874 
2409	 1471.60246587444 
2410	 1466.34091756026 
2411	 1457.61277749881 
2412	 1440.69729976965 
2413	 1414.4349498965 
2414	 1380.41893295675 
2415	 1348.19372550504 
2416	 1328.53364182021 
2417	 1312.76662193029 
2418	 1309.36794727377 
2419	 1295.36447367002 
2420	 1273.0554909985 
2421	 1258.86825204445 
2422	 1245.20460233445 
2423	 1244.23764472359 
2424	 1243.96656441544 
2425	 1235.42138816553 
2426	 1221.64956860793 
2427	 1202.05248672606 
2428	 1183.97973609265 
2429	 1171.3655363446 
2430	 1154.91209965178 
2431	 1144.6560475785 
2432	 1137.00692730894 
2433	 1124.12440887807 
2434	 1120.47655220225 
2435	 1111.05451165526 
2436	 1103.20606981869 
2437	 1102.79895341623 
2438	 1093.80035078875 
2439	 1077.39853837357 
2440	 1054.70538742828 
2441	 1029.87460154805 
2442	 1013.14442941961 
2443	 1013.58070727317 
2444	 1011.11351573668 
2445	 995.635992691007 
2446	 975.20740133856 
2447	 954.561904678316 
2448	 944.249520082495 
2449	 949.169576094836 
2450	 956.24882399628 
2451	 946.206247551389 
2452	 934.709644515752 
2453	 918.813376789988 
2454	 902.62228459657 
2455	 897.757923749193 
2456	 882.924650584599 
2457	 875.367610979031 
2458	 867.202336034887 
2459	 862.051995519033 
2460	 864.431178787439 
2461	 853.578889587966 
2462	 851.488677922099 
2463	 841.041504118709 
2464	 827.571672114902 
2465	 825.370841400684 
2466	 811.246628717815 
2467	 791.369192998265 
2468	 773.819181967057 
2469	 751.922376466627 
2470	 743.400343988566 
2471	 742.294204472447 
2472	 729.434216058559 
2473	 721.171678479827 
2474	 721.517887721428 
2475	 704.686567577418 
2476	 699.990805945341 
2477	 702.185195933177 
2478	 681.491620140276 
2479	 669.768554688996 
2480	 656.384279728755 
2481	 640.749945784929 
2482	 634.449501386491 
2483	 626.58760846678 
2484	 621.988791951611 
2485	 620.466311263315 
2486	 616.492051883585 
2487	 618.525223850472 
2488	 618.325600887783 
2489	 602.515331321923 
2490	 596.383554334261 
2491	 590.440738843826 
2492	 576.929162308062 
2493	 575.254304351869 
2494	 564.21799783507 
2495	 545.8630867653 
2496	 530.958207631611 
2497	 508.128603364737 
2498	 486.228936749538 
2499	 468.938090794913 
2500	 459.76578868476 
