Wavelength	1mm_blackTPU00000.asd
350	-1.35417633343381 
351	-1.04186034966106 
352	-8.99302179840222E-02 
353	-0.886103058406534 
354	-0.731673002928311 
355	-0.463197824858174 
356	-0.834795785669843 
357	-0.578012156258683 
358	-0.288973617935002 
359	-0.100536857069413 
360	 0.244258122436701 
361	 1.67039676416327 
362	 2.55830081017854 
363	 1.3976211325835 
364	-0.655396868852872 
365	-0.457500403551577 
366	 1.78236280848688 
367	 1.57920071320549 
368	 2.48140728300984 
369	 2.88880039513123 
370	 0.460890489821032 
371	-0.830382754500766 
372	-1.1012331641734 
373	-0.780386100339698 
374	-0.191638748399182 
375	 1.23293721771564 
376	 1.98345812641798 
377	-0.10643121545268 
378	-1.2721064440624 
379	-1.00752082849391 
380	 6.31358803756716E-02 
381	-0.329858546730109 
382	-0.346590026509886 
383	 0.427921439432145 
384	 1.19073969902544 
385	 0.414116239506038 
386	-0.901275421030956 
387	-1.23573318707955 
388	-0.167567809575385 
389	 0.966737423946532 
390	 1.22077465708564 
391	 0.124688299487075 
392	 0.228252767352661 
393	 0.896655563778329 
394	 0.395021294296245 
395	 0.614350069002006 
396	 0.819479364620125 
397	 0.472299298424857 
398	 0.300406321183376 
399	 0.562252965971729 
400	 0.866025712087525 
401	 0.31379896220348 
402	 0.1184622039974 
403	 0.198644445452059 
404	 0.180573685753393 
405	-0.133693566883261 
406	-0.394888457459219 
407	-0.452244949742594 
408	-0.474748472449309 
409	-0.517288390751396 
410	-0.222245042372615 
411	 0.782819263654411 
412	 1.11656216325971 
413	 0.735872028356924 
414	-6.00033802296189E-02 
415	-0.695068865615073 
416	-1.18936207345678 
417	-0.966453107209035 
418	 1.06678993295505 
419	 1.95346510694679 
420	 1.75111200392077 
421	 1.25968428159308 
422	-0.153373570524736 
423	-0.553573090755837 
424	 0.724967258783308 
425	 2.04802080784011 
426	 1.81144597623696 
427	 0.425066825956312 
428	-0.435207396634398 
429	-0.425475258721417 
430	-0.133512336000484 
431	-0.180067733068434 
432	-0.594719774527188 
433	 0.044073603449593 
434	 1.25485440576 
435	-3.85019880332028E-02 
436	-0.860335063553631 
437	-0.715890970228984 
438	-0.167479848071353 
439	-0.690650307977239 
440	-1.50154025548445 
441	-1.53333064630431 
442	 0.719498218956909 
443	 0.474344039404949 
444	-1.46375192201603 
445	 0.821087521455624 
446	 0.575193411401488 
447	-1.27407692015599 
448	-1.79882180805765 
449	-0.594684146060001 
450	 1.16651367078628 
451	 2.05010107792492 
452	-0.165020511857499 
453	-0.963614913566487 
454	-0.38126344835997 
455	-1.3773566735167 
456	 0.472427739941282 
457	 1.871186659809 
458	-0.400395712523373 
459	 2.86874458747568E-02 
460	 0.292568415194524 
461	-0.896953347855229 
462	-1.29535537290795 
463	-1.68630738012797 
464	-1.72241614589039 
465	-0.671192190845544 
466	-0.615249722104256 
467	-1.10938851932134 
468	-1.30954491732204 
469	-1.0235342253421 
470	-0.589402988094346 
471	-0.478917393692088 
472	-1.56983729584912 
473	-1.44955851744724 
474	-0.705614610420142 
475	-1.2314953045768 
476	-1.61956393103043 
477	-0.98809871475082 
478	 0.651181428487337 
479	 0.421392739890468 
480	 0.342826097736129 
481	 0.593677002058482 
482	-1.4660041796751 
483	-2.27789824994978 
484	-1.33349203713859 
485	 0.252671191417653 
486	-1.71362486111546 
487	-2.69075995501484 
488	 0.339304299068587 
489	 0.398779515316638 
490	-6.85436722825474E-02 
491	 0.156725208758113 
492	 0.824571465859806 
493	-0.050698270207609 
494	-1.49304226003125 
495	-1.4351287790283 
496	-1.92748436640726 
497	-1.16334101020709 
498	 1.29417432501114 
499	-0.857422557804247 
500	-1.74831528445568 
501	-0.403457508188782 
502	-2.32481784049904 
503	-2.57302904042483 
504	-1.18316328212584 
505	-0.223107236988031 
506	-1.01351726513856 
507	-1.67827701154411 
508	-0.845733674647873 
509	-0.648233761818363 
510	-0.893638489110806 
511	-1.17766915072369 
512	-0.796028069750235 
513	-8.53629506239851E-02 
514	 0.387005882924993 
515	 9.34874741449151E-04 
516	-0.291707570035953 
517	-1.19026187156144 
518	-2.61173744730394 
519	-0.265856993311211 
520	 0.379312648699695 
521	-1.67863205982818 
522	-0.780482694247375 
523	-1.08164193322898 
524	-1.93743493743718 
525	-0.846956614267008 
526	-0.494331645673706 
527	-0.682529813478441 
528	-0.8499341286636 
529	-1.31300878084356 
530	-1.06449417251572 
531	-0.11053728909959 
532	-9.01086270170108E-02 
533	-0.755690743879354 
534	-1.64381787747798 
535	-2.00740790756048 
536	-0.746752435882128 
537	 9.40689270034291E-03 
538	-1.37216296030962 
539	-1.25000767109729 
540	 0.221976637350819 
541	 1.81421888017893 
542	 0.277564296721634 
543	-0.948574980046811 
544	-1.40071183660679 
545	-2.20580055166733 
546	-1.29887669737231 
547	-0.104181177479713 
548	-0.292635172545602 
549	 0.148770483577371 
550	-0.479280670986643 
551	-2.25017275742508 
552	-1.22455796362437 
553	 0.179192557107482 
554	 0.745771617231045 
555	-9.74669821155368E-02 
556	-0.817197038669519 
557	-0.859372660811974 
558	-0.23004065807806 
559	-0.567173756534987 
560	-0.553528117320354 
561	 0.308972886882377 
562	-0.281863442650703 
563	-0.504589804899204 
564	-0.155997400931868 
565	-0.469670089953167 
566	-1.00003965459255 
567	-1.30803100771765 
568	-0.918939123812225 
569	 0.683053879721377 
570	 1.44682936339603 
571	 0.370961139644851 
572	 0.460272127182393 
573	 6.57524015803474E-02 
574	-0.97678398978203 
575	-1.10508284088588 
576	-0.418856457413796 
577	 0.528840240307076 
578	 0.896703016891388 
579	 0.22234898936811 
580	 1.14830393806601E-02 
581	 1.07409916160489 
582	 0.369835161968626 
583	-0.293989165027366 
584	 7.64061557895675E-02 
585	 1.52258711222923 
586	 0.732696534426232 
587	-1.55490009653398 
588	-2.32628959463304 
589	-0.621595813563861 
590	 1.02215789596509 
591	 0.338277429935168 
592	 0.512149347519163 
593	-5.34253771111785E-02 
594	-1.4898884666931 
595	-0.499700994740355 
596	 0.633508173008526 
597	 1.09395883976741 
598	 0.854004000061959 
599	 0.215812413243566 
600	-0.634071007295143 
601	-1.433518891766 
602	-1.3054501682039 
603	-1.06488830565134 
604	-1.01675163790812 
605	 0.317641036418805 
606	 0.761829439982018 
607	 0.135533476283986 
608	 4.57996979839968E-02 
609	-0.63958669228371 
610	-0.971893972590838 
611	 0.273588145745959 
612	 0.596248403512945 
613	 0.374403953541552 
614	 0.169230854392315 
615	-0.292323776098944 
616	 0.435277026282405 
617	 2.07984214282475 
618	 2.23655692690759 
619	 1.38822467809424 
620	 0.176140755125916 
621	-0.593671887617799 
622	-1.5788677514099 
623	-1.08607099342397 
624	 1.54232231303695 
625	 1.81173582453705 
626	 0.705885097772702 
627	-0.417703899275773 
628	 0.493292956254009 
629	 1.07178775452109 
630	 1.09238527600213 
631	 1.39496217281388 
632	 1.68401372157643 
633	 2.08264379217088 
634	 2.61376424819303 
635	 2.47187756245514 
636	 1.85295045042891 
637	 1.0810812443644 
638	 0.574073253193493 
639	 0.591898158698273 
640	 0.94652052949222 
641	 1.0770541511651 
642	 2.20035025305348 
643	 3.00381479476 
644	 2.02668793538139 
645	 2.00986174286075 
646	 2.03412315798417 
647	 1.56621595969252 
648	 2.05271864574434 
649	 2.14299594380909 
650	 1.86192896582407 
651	 2.60016903750937 
652	 2.24565970162365 
653	 1.45347953048185 
654	 1.65534386155362 
655	 1.5245003486227 
656	 1.17192220266912 
657	 0.964969124346613 
658	 1.4823334482095 
659	 2.3343887682936 
660	 3.01996080045433 
661	 2.76256909825298 
662	 2.97938610482165 
663	 3.36619396877955 
664	 2.9852641406989 
665	 3.4398742605371 
666	 3.66400558980206 
667	 2.78430986834792 
668	 2.39329345025233 
669	 2.94288008910068 
670	 3.96272069379569 
671	 3.21491524319205 
672	 4.30484352175686 
673	 5.7286429712486 
674	 3.46884911854407 
675	 3.90182169969114 
676	 5.07603223136577 
677	 4.18641217276049 
678	 3.53194795557098 
679	 4.21295224748043 
680	 5.58805437444563 
681	 3.22593511267961 
682	 2.82548483779139 
683	 4.23567477929705 
684	 3.49919343148147 
685	 3.60530733551631 
686	 4.31401975994356 
687	 4.78363456477843 
688	 5.85807749416988 
689	 5.7759264621049 
690	 4.07924408538991 
691	 3.41230757075925 
692	 4.6709566414181 
693	 6.55680474643614 
694	 5.66625647634492 
695	 6.13903987324763 
696	 6.87795008464033 
697	 5.72129659148946 
698	 4.93073643746692 
699	 5.18160735939613 
700	 6.50167139135484 
701	 7.85291627542981 
702	 9.38639460950326 
703	 9.9966123665148 
704	 7.12063596982173 
705	 5.95775490785694 
706	 6.82745508846064 
707	 7.99552286634986 
708	 6.05602677376275 
709	 5.71587000145506 
710	 9.31717228497699 
711	 9.26183398511531 
712	 8.47812947903426 
713	 8.25873006966451 
714	 8.24187633628555 
715	 7.86756561335792 
716	 7.57365456626821 
717	 8.13830855018235 
718	 9.36976096973817 
719	 9.70609845799966 
720	 8.49298399064722 
721	 8.61538230880014 
722	 8.0226006469311 
723	 6.96755636907135 
724	 8.90036105303046 
725	 8.74980505384694 
726	 7.52054280450289 
727	 8.48261941263789 
728	 9.64392714650093 
729	 10.1066015228837 
730	 9.84872972696449 
731	 11.57592980208 
732	 11.5404907996171 
733	 9.43017714485148 
734	 9.64806813892511 
735	 9.24013629741123 
736	 9.01715801009737 
737	 10.9095987703329 
738	 11.0776684854835 
739	 10.5958138236902 
740	 10.7549093306961 
741	 10.6327878701643 
742	 10.0724734348229 
743	 9.60457577952292 
744	 10.8422284735214 
745	 11.6177619107219 
746	 11.8177463872176 
747	 12.1131088575725 
748	 11.5554041248856 
749	 11.1064089540871 
750	 11.4778188694639 
751	 11.5290756129191 
752	 11.4440389209296 
753	 11.4951990694691 
754	 12.1304455156775 
755	 12.3546828611662 
756	 12.1221998550793 
757	 11.8431934748899 
758	 12.2042170013952 
759	 12.4564974095578 
760	 12.0744644804609 
761	 11.8754897427508 
762	 12.5108356793892 
763	 13.2571269652561 
764	 11.5323308750302 
765	 11.6107894654633 
766	 12.3960658480818 
767	 11.3106061706315 
768	 12.9490275439331 
769	 13.9695740917489 
770	 12.4887336344874 
771	 13.9689893678881 
772	 14.9991918739408 
773	 14.6093410836014 
774	 14.2065077830528 
775	 13.8441310912427 
776	 13.2982640526731 
777	 12.4615949536192 
778	 13.3671439021125 
779	 14.0356812047004 
780	 13.4148949406169 
781	 13.7520144187182 
782	 14.5796386549529 
783	 14.9069635356362 
784	 13.2007440884713 
785	 13.792988937405 
786	 14.3476478420788 
787	 12.0654081991716 
788	 13.4694737077806 
789	 15.4063777849678 
790	 15.5967984565313 
791	 14.6344566555929 
792	 14.5805842260484 
793	 15.6855446022258 
794	 16.8613025894148 
795	 14.554000530477 
796	 12.9609544997271 
797	 15.6989408877243 
798	 15.7714709105351 
799	 15.0379755194589 
800	 14.6491727375032 
801	 14.1392287639007 
802	 13.6556064440949 
803	 13.8135835896753 
804	 15.2120820567816 
805	 15.2204877373049 
806	 14.6779878994894 
807	 14.4188285169816 
808	 13.058854630927 
809	 13.0014170806376 
810	 14.6143674140643 
811	 16.1126983728737 
812	 16.1866821206224 
813	 15.3069029792044 
814	 14.6971146767234 
815	 15.3546029699973 
816	 15.7427036323048 
817	 15.001008276123 
818	 14.1180294317465 
819	 14.219679986622 
820	 15.0612297535547 
821	 15.3606268723736 
822	 14.1852241190334 
823	 13.4438422610025 
824	 14.7390037250915 
825	 15.4674832354756 
826	 15.7223866276106 
827	 15.6184404641853 
828	 15.1016279272899 
829	 14.8586942294449 
830	 14.8578417714135 
831	 14.6889419460522 
832	 13.5154942343674 
833	 12.96706584764 
834	 13.8400087382327 
835	 14.0419852055517 
836	 13.5895059985877 
837	 13.3526156181284 
838	 14.9115473842948 
839	 14.8054805340689 
840	 14.3769676353072 
841	 15.2104792572737 
842	 13.7798123853044 
843	 12.6710418153484 
844	 12.9377152329439 
845	 12.9105425527535 
846	 13.7261506571819 
847	 14.9675737442381 
848	 15.6540400806182 
849	 16.1957141491897 
850	 14.7901748978941 
851	 11.7279445421944 
852	 13.5116147862061 
853	 14.6170962824981 
854	 14.2192995686264 
855	 14.7925689401724 
856	 15.3349913767603 
857	 14.1751763250818 
858	 11.1221876620282 
859	 12.7522063975867 
860	 14.2559840486083 
861	 13.8789180655301 
862	 14.0828090889058 
863	 14.4698806811342 
864	 14.0414965920441 
865	 12.1965198273903 
866	 13.1009851497859 
867	 14.1082108109538 
868	 13.8137125775666 
869	 14.710647831354 
870	 13.8944539226895 
871	 12.0721350024805 
872	 11.7090073455856 
873	 12.096761562366 
874	 12.46527459683 
875	 12.4007974068437 
876	 12.5598896854922 
877	 13.0842008910384 
878	 13.6462415143333 
879	 13.529963171261 
880	 12.9637892519277 
881	 12.4753235597598 
882	 12.4886893711374 
883	 12.6636658191397 
884	 13.2463537517375 
885	 13.7353667788674 
886	 12.6861729424204 
887	 13.0817458747665 
888	 13.8191715832238 
889	 13.0943801131481 
890	 12.9064018929753 
891	 12.6750607439569 
892	 11.9544847875699 
893	 10.526622054857 
894	 11.8277737929166 
895	 13.8062961433652 
896	 12.9481417949424 
897	 13.5079564374871 
898	 13.6744524316898 
899	 12.4956565032303 
900	 11.8096774417013 
901	 11.7807046896573 
902	 12.3079566335741 
903	 12.9805533881328 
904	 13.0055542343993 
905	 12.2615028449097 
906	 11.2646053849965 
907	 11.8615456256011 
908	 12.3563320289828 
909	 12.1741394483213 
910	 11.5230078692497 
911	 12.4989437438674 
912	 13.092939497682 
913	 11.7565632832806 
914	 9.61972175761856 
915	 9.5522899500466 
916	 10.8816306183882 
917	 10.5870137491689 
918	 10.694027927028 
919	 11.2132007404215 
920	 11.6601667573553 
921	 10.9821758614772 
922	 11.0198853456829 
923	 11.539185631404 
924	 10.8806060686443 
925	 10.9174664141663 
926	 10.9862325309713 
927	 10.4385703432543 
928	 9.98711904417947 
929	 10.8299395772724 
930	 11.9945856325049 
931	 11.0630974654267 
932	 11.5967722687124 
933	 11.4139707125353 
934	 9.12813873220605 
935	 8.82728212620222 
936	 9.8974453478877 
937	 10.8797292067996 
938	 9.85977368485054 
939	 9.50473450190965 
940	 9.76298776077134 
941	 10.0027003751605 
942	 9.30518564038799 
943	 9.38391619608136 
944	 9.83437519917452 
945	 8.99969009715443 
946	 8.02381390719377 
947	 7.78775612593242 
948	 8.38555149586474 
949	 7.98170964187858 
950	 8.70856508954815 
951	 9.86199904126448 
952	 9.4034592242564 
953	 8.43378548310707 
954	 8.96716874863254 
955	 10.7454383286392 
956	 8.13422324957291 
957	 7.2042328906083 
958	 8.37338688140407 
959	 9.47102041299535 
960	 8.25117939999335 
961	 7.81073901426823 
962	 9.11611084995792 
963	 8.82001279734804 
964	 8.93139476558171 
965	 8.75765690337929 
966	 16.2616680826793 
967	 16.997225391271 
968	 20.5145486808567 
969	 22.0900669797967 
970	 24.9298634123406 
971	 26.4630919631622 
972	 25.6474728967405 
973	 27.1190814645991 
974	 31.3035428457538 
975	 31.9795226888548 
976	 32.3831743455829 
977	 30.6063940734874 
978	 27.1480050049194 
979	 25.3626868690836 
980	 25.8676354324703 
981	 26.0113393001255 
982	 27.5511774645616 
983	 29.7771216828774 
984	 30.7768614622808 
985	 33.6911655549478 
986	 35.500567589922 
987	 36.4348695219673 
988	 37.1157196480752 
989	 37.6720277299053 
990	 38.1889972116365 
991	 38.6961825237021 
992	 38.5142599911833 
993	 38.9214785271715 
994	 37.0046513890597 
995	 34.3462908150804 
996	 28.6385246551004 
997	 25.0350187884547 
998	 26.8597431906286 
999	 28.2427377709091 
1000	 31.4270086821946 
1001	 34.4924310515712 
1002	 33.9846365181639 
1003	 32.0259772849287 
1004	 32.181021817428 
1005	 33.3265308077812 
1006	 36.3586802472931 
1007	 36.2212184973667 
1008	 35.7900002360448 
1009	 35.1971492429809 
1010	 33.5131311007947 
1011	 32.6419173726004 
1012	 36.254525872666 
1013	 41.9871151952586 
1014	 44.9261239880453 
1015	 45.3860417143037 
1016	 45.4642869210947 
1017	 44.989496329216 
1018	 44.799596478237 
1019	 45.5239834238435 
1020	 46.2091161656982 
1021	 45.4582453384439 
1022	 41.9791792422001 
1023	 41.8547769796799 
1024	 43.4899106212237 
1025	 47.2531544764823 
1026	 48.3813984949168 
1027	 50.4230354585845 
1028	 50.2979018082092 
1029	 45.960265185916 
1030	 44.7792574540759 
1031	 47.5849798653312 
1032	 49.5266673505932 
1033	 51.2466361626434 
1034	 53.1988562456634 
1035	 53.1640647894445 
1036	 50.4354106355159 
1037	 46.7794286987214 
1038	 45.2088906168663 
1039	 45.1073377691624 
1040	 45.6168200288825 
1041	 50.2572100091814 
1042	 52.3926672187539 
1043	 54.3199573265955 
1044	 53.4762369958131 
1045	 52.6230057004572 
1046	 51.9304583477846 
1047	 52.4749363803725 
1048	 52.3189829745658 
1049	 52.5206382017485 
1050	 55.1468871785063 
1051	 51.9968007285166 
1052	 48.7047951005367 
1053	 51.9505573839802 
1054	 52.6903276549146 
1055	 54.4237818652768 
1056	 58.0711541149757 
1057	 57.8836674799733 
1058	 50.4436062799165 
1059	 49.4197433980566 
1060	 50.8577390530856 
1061	 51.3784653579816 
1062	 52.4826596173457 
1063	 55.9636968175126 
1064	 60.4152257124241 
1065	 63.2231038754992 
1066	 68.9414853028525 
1067	 72.4148102803496 
1068	 69.8906869299325 
1069	 67.7186020370423 
1070	 64.0808931080176 
1071	 59.6016012488448 
1072	 58.8755791096118 
1073	 60.5539619984255 
1074	 60.4682601783009 
1075	 60.632308860726 
1076	 61.2921651626026 
1077	 60.9655315103393 
1078	 61.5542023440377 
1079	 65.3037461841242 
1080	 66.5537862350398 
1081	 65.1676834474138 
1082	 65.3227265170789 
1083	 65.5782951284008 
1084	 65.4278447244327 
1085	 65.5796571943387 
1086	 68.5328641197178 
1087	 67.6081703813428 
1088	 68.7532229997274 
1089	 71.9683230031653 
1090	 71.3106910995164 
1091	 71.3554658349848 
1092	 71.3114157226498 
1093	 71.5256543094754 
1094	 69.6410215396224 
1095	 70.7933768477755 
1096	 75.5191367058827 
1097	 77.1419544735515 
1098	 77.8867497909969 
1099	 79.9717935138937 
1100	 81.000076767656 
1101	 82.9377688928172 
1102	 88.170350470051 
1103	 89.9986018213305 
1104	 90.5576621067347 
1105	 88.7906310653226 
1106	 87.4872560045555 
1107	 89.3417943284175 
1108	 91.8138118356555 
1109	 93.9274341697233 
1110	 94.7327539490399 
1111	 93.0269483425591 
1112	 94.1807810104332 
1113	 96.9151246338221 
1114	 97.8203554936582 
1115	 99.0448360269168 
1116	 100.412231803622 
1117	 99.2969860391123 
1118	 101.032556199563 
1119	 107.042744695198 
1120	 109.011756067543 
1121	 108.575571734595 
1122	 110.087988322616 
1123	 110.320743833655 
1124	 111.31510077617 
1125	 113.266735243368 
1126	 118.169870204926 
1127	 119.245032213736 
1128	 118.068200340246 
1129	 118.999786387991 
1130	 119.18106604082 
1131	 121.030910685978 
1132	 124.935443784854 
1133	 127.335540038779 
1134	 129.762127400556 
1135	 131.912753940107 
1136	 133.743166276574 
1137	 135.241119535451 
1138	 137.047767108778 
1139	 137.706169697314 
1140	 138.308745786245 
1141	 137.06841517801 
1142	 132.180559762693 
1143	 130.651545300803 
1144	 128.968335217472 
1145	 128.530560694269 
1146	 129.968253961807 
1147	 132.982627883021 
1148	 137.133948893677 
1149	 142.51404884159 
1150	 146.449409724659 
1151	 152.244703486289 
1152	 155.708598511272 
1153	 156.720987893621 
1154	 158.834710272314 
1155	 161.215720854557 
1156	 163.296768236967 
1157	 165.433874079726 
1158	 166.576907353333 
1159	 166.501024326369 
1160	 167.701766757328 
1161	 168.909659221477 
1162	 169.908414940743 
1163	 172.004754335306 
1164	 173.600608019988 
1165	 173.725406471931 
1166	 174.81795688538 
1167	 177.592044575256 
1168	 178.924041599972 
1169	 178.747355230942 
1170	 179.059936349649 
1171	 178.887648236709 
1172	 176.72821124669 
1173	 177.208513895332 
1174	 179.366363703154 
1175	 180.761973404155 
1176	 182.881387722149 
1177	 184.601190448002 
1178	 186.150972811344 
1179	 187.05774192825 
1180	 188.165940547361 
1181	 188.350181597072 
1182	 187.815161374046 
1183	 186.401103876558 
1184	 182.465959903993 
1185	 181.894974832323 
1186	 182.901527526086 
1187	 183.591940278595 
1188	 187.5356976742 
1189	 188.002074579474 
1190	 186.473129303887 
1191	 183.062050103443 
1192	 178.850216216869 
1193	 178.523659022322 
1194	 179.715735752849 
1195	 182.476929648725 
1196	 185.428042771558 
1197	 191.1711733895 
1198	 193.348976116906 
1199	 193.651165255241 
1200	 195.626905631335 
1201	 197.565180083084 
1202	 198.149403658396 
1203	 199.018673782075 
1204	 199.843966916661 
1205	 198.509862430183 
1206	 198.742490125279 
1207	 200.817035005206 
1208	 201.996007546237 
1209	 202.340893949759 
1210	 203.627475096328 
1211	 206.062232382461 
1212	 207.226249398824 
1213	 208.421636475237 
1214	 210.620219575176 
1215	 209.093550491797 
1216	 207.167638131119 
1217	 209.055198544045 
1218	 207.460929748736 
1219	 207.708034379413 
1220	 211.842656076951 
1221	 213.067022879088 
1222	 212.377315639548 
1223	 213.977413378207 
1224	 216.257877385353 
1225	 218.286339969516 
1226	 220.915276349152 
1227	 223.22065721464 
1228	 226.100155690104 
1229	 226.62344373335 
1230	 225.85012606977 
1231	 226.35226450557 
1232	 226.171168548708 
1233	 225.856267298694 
1234	 227.087670387206 
1235	 226.827940225845 
1236	 225.547363699461 
1237	 221.24633229207 
1238	 220.798184402538 
1239	 221.88524584488 
1240	 224.063698500334 
1241	 226.510582475071 
1242	 227.145159931192 
1243	 227.791052806626 
1244	 226.996991755302 
1245	 228.857436669084 
1246	 232.883046791221 
1247	 233.681241971422 
1248	 233.321507755074 
1249	 232.643176302503 
1250	 231.802306946492 
1251	 228.300158087533 
1252	 229.116575821848 
1253	 233.514568598446 
1254	 235.458548587863 
1255	 237.922199870232 
1256	 239.609128376975 
1257	 239.021693592498 
1258	 239.009461501877 
1259	 240.386664574402 
1260	 241.030161442332 
1261	 240.909541581617 
1262	 240.967891852283 
1263	 241.146619339451 
1264	 242.556925689294 
1265	 242.537307744304 
1266	 243.125501499605 
1267	 242.524680953338 
1268	 240.925437335534 
1269	 243.898614857689 
1270	 247.286271646035 
1271	 251.552327370771 
1272	 257.80899397189 
1273	 260.092786723571 
1274	 258.17535294989 
1275	 257.433183690374 
1276	 255.859035417305 
1277	 252.219472959891 
1278	 251.73517228549 
1279	 252.008844040579 
1280	 252.925145506937 
1281	 252.808857059128 
1282	 255.383452739095 
1283	 255.799766423555 
1284	 253.800357361493 
1285	 252.819426138316 
1286	 250.023442294603 
1287	 249.476491707552 
1288	 250.259283263784 
1289	 250.465740239263 
1290	 253.704881168171 
1291	 257.313499307174 
1292	 257.193257723595 
1293	 259.976236629304 
1294	 260.377891894809 
1295	 260.753575332493 
1296	 262.414642695887 
1297	 261.505381294736 
1298	 261.316275563557 
1299	 259.809000400924 
1300	 258.753786848592 
1301	 259.892090944493 
1302	 259.826352140054 
1303	 259.625852451839 
1304	 259.197125533426 
1305	 258.139158526258 
1306	 257.50099015355 
1307	 258.008168943041 
1308	 256.448964966989 
1309	 253.79685480682 
1310	 253.224678963385 
1311	 252.843708449474 
1312	 253.425515864555 
1313	 256.34397421509 
1314	 258.65233221944 
1315	 259.766171641956 
1316	 262.034420871699 
1317	 266.682720887355 
1318	 269.338536663893 
1319	 270.673165473913 
1320	 275.128091279223 
1321	 276.97699345122 
1322	 276.091412795629 
1323	 278.37703127597 
1324	 279.442096272839 
1325	 278.699628515725 
1326	 281.086764277014 
1327	 282.201548030539 
1328	 281.380837219829 
1329	 283.965426137319 
1330	 286.529976696785 
1331	 287.02437115507 
1332	 290.520544649721 
1333	 295.902821581019 
1334	 297.730992067587 
1335	 300.205503573681 
1336	 303.847668558702 
1337	 303.497902903564 
1338	 305.395999888775 
1339	 309.9330530291 
1340	 309.412557180763 
1341	 308.772189519191 
1342	 309.585802307676 
1343	 307.966285681179 
1344	 308.018836021344 
1345	 310.841926766638 
1346	 314.89099721808 
1347	 318.092565044129 
1348	 322.419553227303 
1349	 324.436228469688 
1350	 325.053707967975 
1351	 324.504361089119 
1352	 321.239742590793 
1353	 320.92365745243 
1354	 321.142238597209 
1355	 321.631427473378 
1356	 325.258654269628 
1357	 328.484403053389 
1358	 329.370442620361 
1359	 329.944815976082 
1360	 328.920808912849 
1361	 327.716709294928 
1362	 326.452864767188 
1363	 329.419417303939 
1364	 334.437539532581 
1365	 336.31853384625 
1366	 340.328274892926 
1367	 341.59684602174 
1368	 341.962945686406 
1369	 348.667886787873 
1370	 353.759591404822 
1371	 359.106237367057 
1372	 363.410557416506 
1373	 361.34368739169 
1374	 361.163033632289 
1375	 360.050946845451 
1376	 357.457663549567 
1377	 357.419058441397 
1378	 356.075687032397 
1379	 356.795469502209 
1380	 359.442568807039 
1381	 360.553746892878 
1382	 361.129608384455 
1383	 361.76687814543 
1384	 360.673811745134 
1385	 358.303866687277 
1386	 358.822232179462 
1387	 357.738539436196 
1388	 355.841712809222 
1389	 356.325028312715 
1390	 356.507987279913 
1391	 356.642927111261 
1392	 357.248021485929 
1393	 357.170779703719 
1394	 359.001580434812 
1395	 362.242461785788 
1396	 363.690322424166 
1397	 365.953292380147 
1398	 370.022614196857 
1399	 373.384397699147 
1400	 375.442053687361 
1401	 378.724284472463 
1402	 382.323375928571 
1403	 383.271621759672 
1404	 385.493749855689 
1405	 388.417528866921 
1406	 390.503503728165 
1407	 391.698570831424 
1408	 390.763712597788 
1409	 389.75911783805 
1410	 389.598014707992 
1411	 390.077811059256 
1412	 393.453950386492 
1413	 397.660139128611 
1414	 402.114843670032 
1415	 406.863861593301 
1416	 407.866275728317 
1417	 408.277840436052 
1418	 409.338870578277 
1419	 408.444476879722 
1420	 409.619414144392 
1421	 412.178508888456 
1422	 411.39259820262 
1423	 413.692169576105 
1424	 419.074892794793 
1425	 418.872955901365 
1426	 417.854249826771 
1427	 419.23117551073 
1428	 418.353881823611 
1429	 418.284514321881 
1430	 420.040988015216 
1431	 419.096579724917 
1432	 418.141154957779 
1433	 419.934399932078 
1434	 422.712816873169 
1435	 425.94131999054 
1436	 426.618938459624 
1437	 424.948667056333 
1438	 424.375717422631 
1439	 423.722372485886 
1440	 423.197587886295 
1441	 425.160058960353 
1442	 427.511440972979 
1443	 427.835330664869 
1444	 428.486098698821 
1445	 428.992699454324 
1446	 428.217349491632 
1447	 428.125008988007 
1448	 428.636186916067 
1449	 429.238210288067 
1450	 429.062378418287 
1451	 429.211501687342 
1452	 430.023210901296 
1453	 431.422753150224 
1454	 431.315560050114 
1455	 434.438974019751 
1456	 435.812257940441 
1457	 436.994122586577 
1458	 438.568941621721 
1459	 437.452957383327 
1460	 437.4049689006 
1461	 436.258359715091 
1462	 435.303097341218 
1463	 435.665075160742 
1464	 435.842366977902 
1465	 435.81650462591 
1466	 436.577897564776 
1467	 440.125552759897 
1468	 442.456319872994 
1469	 443.305525241381 
1470	 443.131690306623 
1471	 440.309030286491 
1472	 438.144670375318 
1473	 439.47456055056 
1474	 440.773175193737 
1475	 439.864846547092 
1476	 438.697261546461 
1477	 434.650297143656 
1478	 429.655695178612 
1479	 428.447956548203 
1480	 427.738884939165 
1481	 427.717685799727 
1482	 429.507328752478 
1483	 427.608730410226 
1484	 425.555912592935 
1485	 426.589879074525 
1486	 426.937559829201 
1487	 427.059014544018 
1488	 428.879569451042 
1489	 428.979861806979 
1490	 428.149457390953 
1491	 429.07279024384 
1492	 427.013242138199 
1493	 423.577837294904 
1494	 420.479742900313 
1495	 418.23402810919 
1496	 418.954425505382 
1497	 420.246845879726 
1498	 421.458331088297 
1499	 423.515286084792 
1500	 423.969747522824 
1501	 425.877117209333 
1502	 429.194278152539 
1503	 430.425460741808 
1504	 429.761206441301 
1505	 427.00528130735 
1506	 424.868065944337 
1507	 422.274492807304 
1508	 423.285788179047 
1509	 426.308920111056 
1510	 427.567637705462 
1511	 429.91513984727 
1512	 429.19817491888 
1513	 426.526471433796 
1514	 422.945202300151 
1515	 419.192764536128 
1516	 418.436728123009 
1517	 420.242708148502 
1518	 422.152264182773 
1519	 422.832046485216 
1520	 422.754620015317 
1521	 421.579393964286 
1522	 422.843209405914 
1523	 425.248084365093 
1524	 426.028762093507 
1525	 427.686680719505 
1526	 427.533405712391 
1527	 427.203149515682 
1528	 428.568823751546 
1529	 429.185590320057 
1530	 431.574378492993 
1531	 432.829337643647 
1532	 432.900115734146 
1533	 432.269326598743 
1534	 429.648458574829 
1535	 429.751399839449 
1536	 431.100472963372 
1537	 432.540676230736 
1538	 435.683054760197 
1539	 436.499945500455 
1540	 436.118307883474 
1541	 439.394670164394 
1542	 439.554416605648 
1543	 437.475400985138 
1544	 438.319710640218 
1545	 437.16695727329 
1546	 434.018416230526 
1547	 433.505278327051 
1548	 432.891533798779 
1549	 429.818014501027 
1550	 430.723912689782 
1551	 432.629391039242 
1552	 434.628210646297 
1553	 436.062475668598 
1554	 434.815662481332 
1555	 436.124757090316 
1556	 437.381043297674 
1557	 439.126089223006 
1558	 440.176107140758 
1559	 438.903512251699 
1560	 439.091928859333 
1561	 436.872344070244 
1562	 434.104513111745 
1563	 434.0196021072 
1564	 430.169570888892 
1565	 425.640488615356 
1566	 422.969151518524 
1567	 421.011245643534 
1568	 422.618084705449 
1569	 425.477834594818 
1570	 428.633688247851 
1571	 430.224201041236 
1572	 431.064931045166 
1573	 431.382180618991 
1574	 429.462927185139 
1575	 428.099645700012 
1576	 427.59806356636 
1577	 428.556580224554 
1578	 430.319331887257 
1579	 431.341940790773 
1580	 432.270906714968 
1581	 431.939424936435 
1582	 431.467460826528 
1583	 432.664778183945 
1584	 432.764765033634 
1585	 431.045024103578 
1586	 429.510269949697 
1587	 427.566172816742 
1588	 426.778809731244 
1589	 426.745818244962 
1590	 426.429971963767 
1591	 428.349492608132 
1592	 430.118151336108 
1593	 430.405010745723 
1594	 431.065052105832 
1595	 430.284286596362 
1596	 427.915576279824 
1597	 425.940168258909 
1598	 425.238686348287 
1599	 425.33037878506 
1600	 421.558002170172 
1601	 419.704452247055 
1602	 420.253180676212 
1603	 417.898553445148 
1604	 417.899095063489 
1605	 419.581475466784 
1606	 421.780118173358 
1607	 422.604318460575 
1608	 423.704203979577 
1609	 423.746664340145 
1610	 419.000627877603 
1611	 418.006729645999 
1612	 417.961119093438 
1613	 416.566669410621 
1614	 419.538501632669 
1615	 418.036772244486 
1616	 413.627642731979 
1617	 412.77964498318 
1618	 410.029669877706 
1619	 408.331749287275 
1620	 408.808780424716 
1621	 408.657265310881 
1622	 406.845552539809 
1623	 403.439932694095 
1624	 402.537255882879 
1625	 400.242405415977 
1626	 396.204720528293 
1627	 394.746300334497 
1628	 391.576085980831 
1629	 390.091689276045 
1630	 393.671295361845 
1631	 395.625293962582 
1632	 395.847700681189 
1633	 395.089681902036 
1634	 385.997686642572 
1635	 382.160695589924 
1636	 380.557161008177 
1637	 377.930945800453 
1638	 378.676973428804 
1639	 377.874792029207 
1640	 374.072434346542 
1641	 372.240642000299 
1642	 372.179659791206 
1643	 370.258192548799 
1644	 367.976882139386 
1645	 365.928654544554 
1646	 362.920454011596 
1647	 359.787582341627 
1648	 355.20433123098 
1649	 353.859898331413 
1650	 353.991764461984 
1651	 354.266150978823 
1652	 358.998415714988 
1653	 359.17334476707 
1654	 357.514285393316 
1655	 354.741406185156 
1656	 348.232948279346 
1657	 344.230805019977 
1658	 340.029217487224 
1659	 336.318648604334 
1660	 334.501589747032 
1661	 330.502447982216 
1662	 325.194486405654 
1663	 321.462758973307 
1664	 317.508071969175 
1665	 313.809451560665 
1666	 310.786398221307 
1667	 308.061404976924 
1668	 304.989002009877 
1669	 303.441714936256 
1670	 305.166612089644 
1671	 300.940496628917 
1672	 294.60358626424 
1673	 287.891222519702 
1674	 276.263771152464 
1675	 270.854158624278 
1676	 267.622175714945 
1677	 265.985528306451 
1678	 268.123605306775 
1679	 266.232890061899 
1680	 263.851917907694 
1681	 261.410793150187 
1682	 257.320770185204 
1683	 252.945676627686 
1684	 253.095626907831 
1685	 251.822378035508 
1686	 246.898920122787 
1687	 246.113304929683 
1688	 243.954442385152 
1689	 242.166222653881 
1690	 239.306089140666 
1691	 232.785678571957 
1692	 229.647730610572 
1693	 227.829754299439 
1694	 226.744128783581 
1695	 229.378309719937 
1696	 229.748563456048 
1697	 228.83021658323 
1698	 228.324830701963 
1699	 227.37804698811 
1700	 226.319308822633 
1701	 224.831263904152 
1702	 224.355788223887 
1703	 223.755099919573 
1704	 223.998734454197 
1705	 225.136528522179 
1706	 227.094852980973 
1707	 231.304258582003 
1708	 232.184391392333 
1709	 231.793558819207 
1710	 232.265075531396 
1711	 231.022352413932 
1712	 230.328329373151 
1713	 230.895622016836 
1714	 231.329404422085 
1715	 230.576350043335 
1716	 230.572353611235 
1717	 231.90674005267 
1718	 232.598562746087 
1719	 231.768063718715 
1720	 233.974344091208 
1721	 239.166576719926 
1722	 240.060440330255 
1723	 240.534161901296 
1724	 241.063214412151 
1725	 238.589541368345 
1726	 240.789078858031 
1727	 241.580357492038 
1728	 237.822961022417 
1729	 237.320243873596 
1730	 235.379703469449 
1731	 231.045374978857 
1732	 230.062008519462 
1733	 228.626407329509 
1734	 226.265912810515 
1735	 226.218755429871 
1736	 227.828802602543 
1737	 229.059754470701 
1738	 233.562764382871 
1739	 234.468970639332 
1740	 231.042696398339 
1741	 231.132836413588 
1742	 231.299077641051 
1743	 232.003947127179 
1744	 236.878983414393 
1745	 237.690663073601 
1746	 235.222250188185 
1747	 234.581159413316 
1748	 231.833063471454 
1749	 233.126513743851 
1750	 237.890934915549 
1751	 240.255080737887 
1752	 243.611090023562 
1753	 245.966738595596 
1754	 246.882897257524 
1755	 248.034744843938 
1756	 115.057566363321 
1757	 121.860551547455 
1758	 153.144745382365 
1759	 164.905643350873 
1760	 156.700424949483 
1761	 170.330007127523 
1762	 173.662622372981 
1763	 162.580972836404 
1764	 165.191257866933 
1765	 175.323209205897 
1766	 171.988769768671 
1767	 165.104056307592 
1768	 165.358462757352 
1769	 162.870665050951 
1770	 154.484053056403 
1771	 157.868430167173 
1772	 164.33530533771 
1773	 165.541049304993 
1774	 158.859889389181 
1775	 162.227424551978 
1776	 173.318003530198 
1777	 175.699003477573 
1778	 178.734166130593 
1779	 179.658296045271 
1780	 170.558688780095 
1781	 168.916341335689 
1782	 179.774033831089 
1783	 190.444460289717 
1784	 203.167172945363 
1785	 225.123439456481 
1786	 238.10417475421 
1787	 234.052338108372 
1788	 233.32804386811 
1789	 216.844079470185 
1790	 199.207981851545 
1791	 206.522577482836 
1792	 210.194794215529 
1793	 213.825517558559 
1794	 216.378927910384 
1795	 223.30239369791 
1796	 220.37174801302 
1797	 211.531262807257 
1798	 207.992749713667 
1799	 218.034706748406 
1800	 219.414142841665 
1801	 234.752795327818 
1802	 263.155464665679 
1803	 269.935883209815 
1804	 258.086238954583 
1805	 262.209667408785 
1806	 265.777930222661 
1807	 261.634679469877 
1808	 273.250185035606 
1809	 289.692458772517 
1810	 283.85661515583 
1811	 275.695288494095 
1812	 273.196796800052 
1813	 268.138602061005 
1814	 267.70514823915 
1815	 271.406228660742 
1816	 276.870920321644 
1817	 290.352568379609 
1818	 291.376860490653 
1819	 299.932732529194 
1820	 303.269644160304 
1821	 300.396064743524 
1822	 284.351746336682 
1823	 281.225328178272 
1824	 278.183748960104 
1825	 277.210745955575 
1826	 289.054452268618 
1827	 288.293050213631 
1828	 278.3967902581 
1829	 269.592323529549 
1830	 267.819753518444 
1831	 262.148299025822 
1832	 265.134604545408 
1833	 284.024115858017 
1834	 289.231623598559 
1835	 288.655510353071 
1836	 291.286019628924 
1837	 290.689928619532 
1838	 291.802857749873 
1839	 293.898169479093 
1840	 297.349247174849 
1841	 304.53190608882 
1842	 317.291345017424 
1843	 319.984603962106 
1844	 325.851196635451 
1845	 323.248529143708 
1846	 300.644461625416 
1847	 295.447781930167 
1848	 296.619770250171 
1849	 297.095735011464 
1850	 309.573575553857 
1851	 310.066898919611 
1852	 316.585430356381 
1853	 329.403558486199 
1854	 330.063528233642 
1855	 328.085525751684 
1856	 326.305359977914 
1857	 314.123776959137 
1858	 301.146440258585 
1859	 307.788361634957 
1860	 315.388323497076 
1861	 328.545065687921 
1862	 344.01489673227 
1863	 353.310173263437 
1864	 358.843918802838 
1865	 362.209656037675 
1866	 361.184660721444 
1867	 360.039866847061 
1868	 357.610335231695 
1869	 354.46073901362 
1870	 342.272094629618 
1871	 346.248983191724 
1872	 343.565756261332 
1873	 344.392997578233 
1874	 357.59477361028 
1875	 356.360216665347 
1876	 354.469680692806 
1877	 349.310270527999 
1878	 342.663243816153 
1879	 336.512321874577 
1880	 342.718807074594 
1881	 348.280289186373 
1882	 351.895323524007 
1883	 353.973949986448 
1884	 352.806354942708 
1885	 356.386619530738 
1886	 356.879674245355 
1887	 352.737506225295 
1888	 345.903797735144 
1889	 336.780383121458 
1890	 327.083558006384 
1891	 322.76809197294 
1892	 327.87802951776 
1893	 330.18662700354 
1894	 324.099206923284 
1895	 318.043840733981 
1896	 311.077698657617 
1897	 309.675186028773 
1898	 311.214616562146 
1899	 313.452725455804 
1900	 319.339972067136 
1901	 327.361566122456 
1902	 338.210463798369 
1903	 339.355337346558 
1904	 331.304927459203 
1905	 337.995253434603 
1906	 328.954717743989 
1907	 322.587415106091 
1908	 327.532499832265 
1909	 347.523317340761 
1910	 351.889184122488 
1911	 360.302197517932 
1912	 361.904871337724 
1913	 356.529791098426 
1914	 340.572664612126 
1915	 334.943152815014 
1916	 327.012745421589 
1917	 326.869655796483 
1918	 331.795921703773 
1919	 338.128276271546 
1920	 359.166702254808 
1921	 362.165146227836 
1922	 355.330322832224 
1923	 354.014123370866 
1924	 339.163423777772 
1925	 335.037712907051 
1926	 342.370314933157 
1927	 346.996805179463 
1928	 348.565777714925 
1929	 356.805306560992 
1930	 358.282796927647 
1931	 356.820594274936 
1932	 356.317463558522 
1933	 353.40001193734 
1934	 350.576317622989 
1935	 347.896568958202 
1936	 342.693097109958 
1937	 333.748573324456 
1938	 328.34442601904 
1939	 317.674486541064 
1940	 319.964122576518 
1941	 319.331802641646 
1942	 321.313203269718 
1943	 326.314567327858 
1944	 336.756622022415 
1945	 339.371338071672 
1946	 341.806298935612 
1947	 343.583202512814 
1948	 336.267841058321 
1949	 337.249051824391 
1950	 347.595845695702 
1951	 351.592464387676 
1952	 350.453834011901 
1953	 360.034978648403 
1954	 358.16482132902 
1955	 348.399314590336 
1956	 344.797523754586 
1957	 336.169542585366 
1958	 337.568954007199 
1959	 349.940747394021 
1960	 353.602788955025 
1961	 358.374004995863 
1962	 362.10189236295 
1963	 359.005887547966 
1964	 359.65671059634 
1965	 367.3801664581 
1966	 370.187124337767 
1967	 368.341043809115 
1968	 361.361696997029 
1969	 358.754860544555 
1970	 352.046008056604 
1971	 349.803136071502 
1972	 352.66676311072 
1973	 353.696919219587 
1974	 356.132847709378 
1975	 355.455226015355 
1976	 359.524064782024 
1977	 353.465482596584 
1978	 333.25617703091 
1979	 321.739203253791 
1980	 313.207942185204 
1981	 299.72932149149 
1982	 298.990704071224 
1983	 313.420332777312 
1984	 315.842981824092 
1985	 321.44327804901 
1986	 316.928511013547 
1987	 300.014206026894 
1988	 292.933627855528 
1989	 280.748275907131 
1990	 276.930300739382 
1991	 283.748090843842 
1992	 289.508716558459 
1993	 292.973453636729 
1994	 298.655971804899 
1995	 297.202860269673 
1996	 287.649091813307 
1997	 285.890342075378 
1998	 282.532609974984 
1999	 282.28112431456 
2000	 294.467587483884 
2001	 292.364994988668 
2002	 279.790871246429 
2003	 274.373199546497 
2004	 262.980366439879 
2005	 257.123741460894 
2006	 263.891754589068 
2007	 261.618137182118 
2008	 261.883724574138 
2009	 255.954222698138 
2010	 250.057612975237 
2011	 239.924130387273 
2012	 235.817612935661 
2013	 234.618425109305 
2014	 229.524976833362 
2015	 220.836545433468 
2016	 219.394657655386 
2017	 216.744673385286 
2018	 218.828121743086 
2019	 228.385347313 
2020	 244.885335048345 
2021	 249.216615482655 
2022	 247.714669756839 
2023	 239.286981259202 
2024	 215.668653884235 
2025	 204.326070206752 
2026	 188.747578722539 
2027	 183.904653561653 
2028	 195.489789005489 
2029	 192.838214927511 
2030	 185.745568007097 
2031	 185.769855460069 
2032	 184.021600160036 
2033	 179.330915623757 
2034	 191.001351669249 
2035	 190.713533562729 
2036	 178.52917538723 
2037	 176.951304000466 
2038	 169.319984917123 
2039	 159.38927518902 
2040	 153.682182618939 
2041	 140.769931355462 
2042	 137.38514002209 
2043	 137.450835065296 
2044	 137.121342720212 
2045	 146.371790413492 
2046	 150.347706068719 
2047	 149.081028369757 
2048	 151.334435445378 
2049	 159.465879032822 
2050	 155.916787446764 
2051	 151.302809149316 
2052	 144.150660634942 
2053	 130.446997550573 
2054	 127.127628906766 
2055	 130.253508707027 
2056	 137.470816193586 
2057	 147.635471442466 
2058	 154.586926578547 
2059	 158.30707060838 
2060	 155.927419514993 
2061	 155.363897373209 
2062	 154.307159609141 
2063	 153.421479314478 
2064	 147.282483392308 
2065	 152.687312014796 
2066	 167.66257559545 
2067	 174.691138164804 
2068	 190.199973213726 
2069	 206.350884931127 
2070	 203.047413300261 
2071	 205.40720720518 
2072	 206.883710244227 
2073	 200.983279337984 
2074	 207.127546934114 
2075	 215.042979913996 
2076	 217.021173944366 
2077	 219.672639904681 
2078	 217.671980114032 
2079	 202.233379935993 
2080	 197.511022671145 
2081	 196.429189316583 
2082	 198.296689768597 
2083	 194.85648144787 
2084	 202.407421513916 
2085	 193.913052225774 
2086	 178.119507995302 
2087	 180.381944387962 
2088	 180.313820128656 
2089	 182.516441631666 
2090	 187.657216856133 
2091	 184.821704513883 
2092	 184.044150386372 
2093	 179.801152858282 
2094	 177.587549274532 
2095	 172.593596894042 
2096	 159.113069599019 
2097	 149.118281764271 
2098	 138.184125085891 
2099	 134.804147727645 
2100	 136.157869586495 
2101	 148.908995094419 
2102	 158.279526535956 
2103	 162.663582892736 
2104	 161.528042242436 
2105	 146.863756301379 
2106	 131.047550711485 
2107	 124.090240536708 
2108	 123.297303738539 
2109	 133.873634377442 
2110	 145.444561875487 
2111	 149.032300286842 
2112	 149.140183871415 
2113	 140.961573527261 
2114	 137.769675760262 
2115	 140.544000543073 
2116	 138.585432542998 
2117	 133.939805319574 
2118	 134.151300490045 
2119	 133.593831000462 
2120	 132.795927447645 
2121	 147.013705016191 
2122	 145.840278583053 
2123	 139.098669620284 
2124	 135.822521677984 
2125	 117.088169971393 
2126	 101.439967755294 
2127	 96.7578742265505 
2128	 89.6955144608666 
2129	 83.9548289070749 
2130	 78.3257047809993 
2131	 66.6021625399071 
2132	 55.3565926074164 
2133	 58.5710104993496 
2134	 74.7617502272763 
2135	 84.4886636458891 
2136	 107.818671791165 
2137	 115.079702702561 
2138	 103.245052267879 
2139	 100.491605865565 
2140	 96.3775401956168 
2141	 95.3401525419866 
2142	 103.260917981556 
2143	 117.289599069335 
2144	 125.363057301388 
2145	 121.502124961571 
2146	 110.391607506104 
2147	 102.57661250199 
2148	 101.209992121105 
2149	 107.152117837097 
2150	 110.213853113712 
2151	 108.135871512549 
2152	 107.077449600636 
2153	 101.225028293117 
2154	 104.626372134164 
2155	 109.553871313567 
2156	 110.869368369132 
2157	 123.145764341871 
2158	 124.486794285939 
2159	 122.619266249157 
2160	 118.262260697341 
2161	 96.9507382603919 
2162	 88.2203027647526 
2163	 83.1627884230319 
2164	 87.0958723669231 
2165	 93.5780874516574 
2166	 99.2865753183943 
2167	 98.7678739252015 
2168	 90.412696039693 
2169	 73.3707739928159 
2170	 71.6791925507611 
2171	 77.420645979854 
2172	 75.7447285065618 
2173	 89.2825339179941 
2174	 105.162186729253 
2175	 116.955442323633 
2176	 129.309237409834 
2177	 138.957734823633 
2178	 139.523172480527 
2179	 138.445444174808 
2180	 148.244782317801 
2181	 152.095338839934 
2182	 158.157695249154 
2183	 155.097232840443 
2184	 140.804492071253 
2185	 128.830041854074 
2186	 106.110981126184 
2187	 97.3081729395171 
2188	 93.5092395002222 
2189	 99.8423751436888 
2190	 110.729594190943 
2191	 116.849481203624 
2192	 122.290322353723 
2193	 129.674701766935 
2194	 134.966327366809 
2195	 140.809517816094 
2196	 140.766874721615 
2197	 136.968617595784 
2198	 130.612918140915 
2199	 126.713073491548 
2200	 132.101837520831 
2201	 142.023230112698 
2202	 140.432035430217 
2203	 144.18312227769 
2204	 151.883973520316 
2205	 140.850173714448 
2206	 152.296640736872 
2207	 163.030350030456 
2208	 157.729540171477 
2209	 167.518372586875 
2210	 163.161452964519 
2211	 142.212557951287 
2212	 135.791476419893 
2213	 125.519151969016 
2214	 121.985289756515 
2215	 129.376410519076 
2216	 129.00418235393 
2217	 126.712505005349 
2218	 131.385865050658 
2219	 136.634563267286 
2220	 149.447741575378 
2221	 159.217339142789 
2222	 167.249085494141 
2223	 161.133376294036 
2224	 148.694774687209 
2225	 140.968105335675 
2226	 131.568326977765 
2227	 120.275821736812 
2228	 114.765203710639 
2229	 111.014044415757 
2230	 112.167248608321 
2231	 110.325650725443 
2232	 96.8586106709261 
2233	 80.5066896671054 
2234	 50.6502400148181 
2235	 35.7027980772464 
2236	 31.2366530325254 
2237	 27.4078948354396 
2238	 35.7579199386026 
2239	 36.6296343881378 
2240	 45.0854072876525 
2241	 60.5082236698265 
2242	 72.773109995976 
2243	 81.8667791033624 
2244	 95.2690895156305 
2245	 92.1727480935532 
2246	 74.0723497162605 
2247	 62.6710561668699 
2248	 46.0146061504989 
2249	 34.8430270861484 
2250	 27.8232099075808 
2251	 24.3923176248818 
2252	 16.6736538682151 
2253	 16.4787126936767 
2254	 26.2485186899763 
2255	 31.2053910969919 
2256	 37.7097436714141 
2257	 48.3101609921851 
2258	 48.9828217128267 
2259	 53.6153881117665 
2260	 58.7403772395684 
2261	 60.2837991975224 
2262	 64.1414948379756 
2263	 64.9241746546835 
2264	 52.4961539610669 
2265	 47.7833518584525 
2266	 51.6634967786349 
2267	 44.1190476358208 
2268	 53.8777987414057 
2269	 55.3557375775142 
2270	 35.458275682568 
2271	 31.7114849390995 
2272	 18.0658063442959 
2273	 3.70957401863856 
2274	 13.4103046700474 
2275	 14.833272325977 
2276	 17.3047647218555 
2277	 29.6531659541743 
2278	 18.1645931923002 
2279	 1.42665829839614 
2280	-5.11007776146356 
2281	-22.6304814059112 
2282	-32.6919378834901 
2283	-25.180317467812 
2284	-22.9635005389148 
2285	-15.0096167632146 
2286	-8.56978935542119 
2287	 2.12598861039291 
2288	 1.22931086232879 
2289	-8.43762820638101 
2290	-12.4973573133913 
2291	-19.769575202833 
2292	-17.9007449928877 
2293	-8.50618394813967 
2294	 1.27136008732536 
2295	 17.8599146205507 
2296	 23.6211752275797 
2297	 27.3112460906946 
2298	 27.1282900285611 
2299	 17.3161729936577 
2300	 15.6112958180032 
2301	 14.5967836496132 
2302	 15.9416566313565 
2303	 18.7045077326885 
2304	 21.9351969345225 
2305	 30.3324969071588 
2306	 33.8684141627997 
2307	 39.4493895478858 
2308	 39.3251524591824 
2309	 32.1933836591463 
2310	 27.0888989267886 
2311	 23.6975927746456 
2312	 17.4076527264973 
2313	 18.7353526289021 
2314	 17.8136680279495 
2315	 15.981547004294 
2316	 21.5440420583293 
2317	 27.4442639628061 
2318	 32.0203348515144 
2319	 34.8210310481924 
2320	 35.859691543936 
2321	 29.4587734633108 
2322	 28.6127058118208 
2323	 29.8437372521398 
2324	 24.6138973231058 
2325	 23.0883411121164 
2326	 15.8513537412113 
2327	 7.37336943244345 
2328	 2.13805232952072 
2329	-4.35019130817153 
2330	-7.27505503697389 
2331	-4.68269155611113 
2332	-8.05344341302206 
2333	-7.98589105077164 
2334	-2.54306803687256 
2335	-5.87862423394273 
2336	-0.478742610240801 
2337	 4.68271013243461 
2338	 1.78978928229299 
2339	 3.0815280821491 
2340	 3.06254339825411 
2341	-4.54309815399185 
2342	-8.69167326938575 
2343	-2.31815019233484 
2344	-4.30589328015904 
2345	-1.60174047487734 
2346	 11.4010577641747 
2347	 6.71724099931318 
2348	 6.22826790697053 
2349	 6.1437054292157 
2350	-0.380559977192378 
2351	 7.659737155692 
2352	 9.57309103529347 
2353	 14.1242778871005 
2354	 14.9550945030463 
2355	 12.6725583928129 
2356	 17.299892247939 
2357	 9.63114513290613 
2358	 12.8160399813787 
2359	 12.7366749802184 
2360	 1.48529463221908 
2361	 11.6024698049743 
2362	 15.5408881082879 
2363	 9.2060401637838 
2364	 16.8838869924176 
2365	 10.3963342287828 
2366	 3.74282536230943 
2367	 7.93162808586902 
2368	-2.41854789955418 
2369	-5.63450556373909 
2370	-4.02909482703239 
2371	-10.7684796949009 
2372	-9.23282739054779 
2373	-5.447854987194 
2374	-8.9246092550824 
2375	 2.8957500268698 
2376	 7.47153662685179 
2377	 2.75712417247889 
2378	 8.97051904314848 
2379	-8.31973648205178 
2380	-11.5472544361927 
2381	-4.94736736919803 
2382	-10.122056726196 
2383	 2.18123379485611 
2384	 1.19574582486597 
2385	-0.375637915345501 
2386	 5.57492137186326 
2387	 13.4669623890574 
2388	 26.6512240283276 
2389	 30.1704595448868 
2390	 38.5438038343596 
2391	 36.294261040503 
2392	 33.5293608309213 
2393	 37.2447161646197 
2394	 30.3246691869275 
2395	 36.0106118550954 
2396	 38.2367300988282 
2397	 37.6377450853415 
2398	 41.8662033858963 
2399	 25.5833314658116 
2400	 9.01527207643132 
2401	-1.31044361298168 
2402	-14.8854920269356 
2403	-13.9767138482425 
2404	-2.96967678088028 
2405	 9.65474300886777 
2406	 25.6901922493872 
2407	 33.2021181015987 
2408	 35.5308393507883 
2409	 39.7449381416542 
2410	 39.6041876685816 
2411	 34.657550522267 
2412	 24.4397135935005 
2413	 15.5141473404785 
2414	 3.85729169117774 
2415	 1.70158864524497 
2416	 9.4186390468388 
2417	 8.93003653398908 
2418	 10.2919292851784 
2419	 4.66828328085568 
2420	 2.38990476645231 
2421	 2.80050039573817 
2422	 2.26496183800211 
2423	 0.302929407556202 
2424	-7.70524168206444 
2425	-13.9333938902085 
2426	-17.7250627433921 
2427	-8.88766938624046 
2428	-1.60996088725714 
2429	 6.24741292866427 
2430	 6.90216246573297 
2431	-2.67711216008313 
2432	 4.36966228320278 
2433	 20.1087053842384 
2434	 30.7516434507562 
2435	 45.5006154756659 
2436	 49.8884137002302 
2437	 36.1740098824088 
2438	 19.9931502364421 
2439	 0.456912096077074 
2440	-5.86027429192378 
2441	-13.2311430751069 
2442	-7.65240377728156 
2443	 13.9924798058151 
2444	 16.9196284359933 
2445	 26.2402091806844 
2446	 20.3847318652442 
2447	-0.173383072855819 
2448	-10.6174891249394 
2449	-17.8549312816911 
2450	-14.0747382946489 
2451	 0.200869294115102 
2452	 18.4493730599509 
2453	 27.8016238504212 
2454	 41.2516142646577 
2455	 52.455445909574 
2456	 50.1244623046851 
2457	 47.9179723832401 
2458	 36.0940937557361 
2459	 29.1290964743869 
2460	 29.0332452448668 
2461	 22.6563627073646 
2462	 23.189567844795 
2463	 18.3077278589998 
2464	 5.4278885700977 
2465	-1.80989101597295 
2466	-5.94944553482629 
2467	-15.1429091155499 
2468	-11.1026068084256 
2469	-0.97200653853442 
2470	 9.82981011459554 
2471	 23.2928358834437 
2472	 26.8364135947375 
2473	 23.401567282611 
2474	 14.0702830091704 
2475	 4.35350084895918 
2476	 2.62711598236188 
2477	-2.20084215542349 
2478	-8.55062457447155 
2479	-8.27132507537516 
2480	-20.1430025690246 
2481	-30.2170017457425 
2482	-24.5546815221387 
2483	-27.1922249989044 
2484	-20.7937066760904 
2485	-9.10402100498558 
2486	-5.37061450871111 
2487	 1.9793681093641 
2488	 6.48395935618506 
2489	 10.2466702749131 
2490	 18.2311797372505 
2491	 18.1917021442485 
2492	 14.9219236055534 
2493	 17.6709347300994 
2494	 10.678129023163 
2495	 8.89482303042238 
2496	 10.4340151213843 
2497	 9.55463665177619 
2498	 9.03594194466862 
2499	 4.10723738402639 
2500	 2.82107447610366 
