Wavelength	2mm_blackTPU00000.asd
350	-1.88754427489082 
351	-1.7681469173255 
352	-1.5591197441247 
353	-2.20141344170506 
354	-1.75695566751009 
355	-0.4641554152342 
356	 0.69371292590189 
357	-0.489600085395949 
358	-1.10030356769164 
359	-0.517034268968603 
360	-1.54713089273845E-02 
361	 1.04761013981577 
362	 1.65841186547577 
363	 0.854134108338311 
364	-0.963022246009779 
365	-0.775860883700217 
366	 1.14730300794524 
367	 0.274429921916208 
368	 1.39097654806547 
369	 2.24342448549442 
370	-0.487390082868619 
371	-1.14813101941933 
372	-0.976189745590038 
373	-1.04920948235238 
374	-1.12258787576145 
375	-0.257197782027766 
376	 0.502217702344034 
377	-0.658937628096949 
378	-1.24175026564141 
379	-0.60561244337263 
380	 0.679075577602736 
381	-0.728209172411289 
382	-1.07159560522368 
383	 1.42365610611742E-02 
384	 1.13846985260994E-02 
385	-0.205851985646622 
386	-0.744186506057545 
387	-1.51026773767135 
388	-0.436172145290262 
389	 4.08434096199939E-02 
390	-0.751787946598668 
391	-0.564479083083145 
392	-0.266667227987963 
393	 0.26483302201735 
394	 1.2567498021267 
395	 0.857071945415508 
396	-0.389240867442028 
397	-1.43962164488912 
398	-0.774720291389039 
399	 0.60246436807544 
400	 1.53343634862596 
401	 0.708802116228352 
402	-0.260659537509729 
403	-1.17959252419424 
404	-1.84176684446594 
405	-0.198932358652653 
406	 0.921589568332096 
407	 0.359093771087044 
408	-0.428734213000519 
409	-0.678340117364188 
410	-0.984797191483968 
411	-2.27479229392303 
412	-1.5219070141328 
413	-0.179844782338092 
414	 0.23932072049385 
415	-0.273712990657983 
416	-0.780247444618696 
417	-0.994127157325833 
418	-1.1973151523011 
419	-1.25540767274642 
420	-0.277543794471033 
421	 1.94012294837291 
422	 0.636650657124085 
423	-0.49094346896424 
424	 0.555272870879765 
425	 2.15285755693569 
426	 0.719042217928484 
427	-1.92719450956995 
428	-1.05953418575434 
429	-0.141595052670575 
430	-2.42389410894827E-02 
431	-0.659924668567838 
432	-0.522075175315118 
433	-0.258704697285497 
434	-0.154891060593804 
435	-1.63861765529461E-02 
436	 0.492437841495385 
437	 0.841487504222909 
438	 0.249724168990664 
439	-0.768886900299708 
440	-2.48779471871526 
441	-3.96483564708466 
442	 0.167921930896126 
443	 0.531253913599375 
444	-2.79785519710416 
445	-1.23545118177278 
446	-1.23590012620656 
447	-2.39968740723608 
448	-2.61216015101023 
449	-1.60572068823979 
450	-8.48030215088144E-02 
451	 0.989982832741158 
452	 1.70204244964726E-02 
453	-0.478395895475541 
454	-0.285465318483388 
455	-0.651400629494058 
456	 0.585493625769354 
457	 1.31746293293796 
458	-0.382521487667822 
459	-0.527835096314485 
460	-0.54015457964822 
461	-1.19208369876609 
462	-1.76212118630999 
463	-1.6114981554259 
464	-0.90540766278332 
465	-0.369171339618064 
466	-1.14527371909506 
467	-1.9548178348808 
468	-1.63216813398718 
469	-1.69720628819067 
470	-1.1936863333675 
471	-0.263220365584942 
472	-0.986074156863667 
473	-0.911581991346889 
474	-0.551032361335934 
475	-1.54787063976917 
476	-1.25128482532446 
477	-0.105835626564581 
478	 0.78291323032487 
479	-7.95263362145862E-02 
480	-0.771391401736002 
481	-0.82483875979853 
482	-1.84937919260396 
483	-2.68008576051909 
484	-2.2657365506058 
485	-0.052750936667397 
486	-1.73109844717142 
487	-3.16630790230678 
488	-1.14801011301243 
489	-1.09469590294986 
490	-1.34483744056978 
491	-1.03115942195377 
492	-0.18937756607203 
493	-1.12934410612643 
494	-2.48893917396661 
495	-1.6700547042859 
496	-2.21390191687121 
497	-1.99905745504369 
498	 5.94315990405393E-02 
499	-1.47240480721852 
500	-2.34451219842179 
501	-1.54311757039195 
502	-2.30089117949461 
503	-1.55450610834483 
504	-0.329487690352883 
505	-1.09076663373313 
506	-2.35262139251438 
507	-2.61318200454865 
508	-1.29173033843507 
509	-0.752796098678265 
510	-0.571298138388557 
511	-0.64905597885002 
512	-1.4142626207069 
513	-2.06462786867682 
514	-1.99920084044672 
515	-0.921081680773934 
516	-1.18929799617 
517	-2.47556392848417 
518	-3.50470348370564 
519	-1.00523607346466 
520	-0.318726140953322 
521	-2.40227295708091 
522	-1.7054716403762 
523	-2.27634319082082 
524	-3.07749534533781 
525	-1.24955997690684 
526	-2.08789993303355 
527	-3.17497456645979 
528	-2.11957297898765 
529	-2.48570350046689 
530	-2.99921003709372 
531	-2.77224832638403 
532	-1.41628013178876 
533	-1.26467131919936 
534	-2.33670899818763 
535	-3.30122417777119 
536	-2.29035085441024 
537	-1.16434735053736 
538	-1.71230892666381 
539	-1.4778136208921 
540	-0.867776709875689 
541	-0.547339374638652 
542	-1.71611274309031 
543	-1.96294616282893 
544	-1.55555333526675 
545	-2.31198304545045 
546	-1.31676115074132 
547	-0.657875828990329 
548	-2.44730604121753 
549	-2.15115364919823 
550	-2.06418009815431 
551	-3.13345699062697 
552	-2.59808002773127 
553	-1.14616543061617 
554	-0.384043228825105 
555	-2.82309560377024 
556	-3.54271976793325 
557	-2.67695567474861 
558	-1.9024684047801 
559	-2.60839245168276 
560	-2.86788083013946 
561	-1.93597330032388 
562	-2.85652026095619 
563	-3.63153935544452 
564	-3.42501955118427 
565	-2.28884153777132 
566	-1.55442339711462 
567	-1.50560540352896 
568	-1.81988722079982 
569	-0.434565414437231 
570	-0.199440083908477 
571	-2.44838255172347 
572	-2.19732554520591 
573	-1.95800306110166 
574	-2.55372100896642 
575	-2.98133485842323 
576	-2.08761986400706 
577	-0.768743219955927 
578	-0.79342842230975 
579	-1.8684569467086 
580	-2.31524022176168 
581	-1.37020870847948 
582	-2.57933207573338 
583	-3.8517866376498 
584	-3.62557309657935 
585	-0.512649422829831 
586	-1.20955648354597 
587	-4.34864370845925 
588	-4.30643205289944 
589	-2.98655611245473 
590	-1.92262405642664 
591	-2.09878784550324 
592	-1.57500072787513 
593	-2.31138289904564 
594	-4.18199441418279 
595	-2.35665489362548 
596	-1.01393423643642 
597	-0.918012406514979 
598	-0.793907824296444 
599	-1.96723404764156 
600	-3.27127831897361 
601	-3.29294027841013 
602	-3.48554897203981 
603	-3.83149723138332 
604	-3.73847832232807 
605	-1.06851031828011 
606	-1.97660252248474E-02 
607	-0.959657360582742 
608	-0.791425092678935 
609	-2.55258071663855 
610	-4.17818372509557 
611	-2.64449811865191 
612	-2.40186939667647 
613	-2.39918659353296 
614	-1.73596325385079 
615	-2.23407976422918 
616	-2.38222886590325 
617	-2.03889935228538 
618	-2.7763969737124 
619	-3.41409142058772 
620	-3.51436669605908 
621	-3.03266757233265 
622	-3.57907666629234 
623	-3.92602470662501 
624	-3.04218634863792 
625	-2.52006305864235 
626	-2.6412295401833 
627	-3.06211314289696 
628	-2.29895304412276 
629	-2.22471569840663 
630	-2.95708994986561 
631	-3.64255905847254 
632	-3.00085360650602 
633	-1.78268701691982 
634	-1.17557313180538 
635	-1.88333264148648 
636	-2.13693254875455 
637	-1.68000619277788 
638	-4.10513597530696 
639	-4.01909702523518 
640	-1.89812114633083 
641	-2.46659180264672 
642	-2.27569768008779 
643	-1.79099561055967 
644	-2.30979637561485 
645	-3.61953335959412 
646	-3.85863245039705 
647	-2.28228008474413 
648	-1.02348256706784 
649	-0.818145055926496 
650	-1.25752907459096 
651	-0.625220316743875 
652	-1.94763347706929 
653	-3.40908084111635 
654	-2.13648305475668 
655	-3.05448602566565 
656	-4.1480242918249 
657	-3.61927246700342 
658	-3.26277986441375 
659	-3.13784242498694 
660	-2.95911087676825 
661	-1.83230366534546 
662	-2.19106744331072 
663	-3.2146300611858 
664	-2.71180037551436 
665	-1.53551981318958 
666	-1.25529746134451 
667	-2.70346506811048 
668	-3.52980015497582 
669	-3.48148406329734 
670	-2.85385413831934 
671	-2.82894857550226 
672	-1.92323769437959 
673	-1.30053723143442 
674	-3.33564600884553 
675	-2.73467639395535 
676	-1.26754707878353 
677	-1.59915879962129 
678	-2.73772341433491 
679	-2.82113402756135 
680	-1.8294695558886 
681	-3.8782070798632 
682	-3.24299329442359 
683	-1.27162595708617 
684	-3.98890150998727 
685	-4.34291330546897 
686	-3.08782172701872 
687	-2.61149941475922 
688	-1.77835998455308 
689	-2.27291395025425 
690	-4.19918683929181 
691	-3.50703105457281 
692	-2.96276725734838 
693	-3.29228627561082 
694	-3.73291544354431 
695	-2.59488724402149 
696	-1.32225666769871 
697	-1.97416317162587 
698	-2.98447090128407 
699	-3.1097272321137 
700	-2.07944195818522 
701	-2.00995319537935 
702	-1.72436108841592 
703	-1.23953352480567 
704	-1.72494695600915 
705	-2.52970695578296 
706	-2.93620423205723 
707	-2.43964462448293 
708	-3.24795818407467 
709	-3.02135546464301 
710	-0.665076415658399 
711	-0.294765844605903 
712	-0.757617591948039 
713	-1.45384649230468 
714	-2.34209941108714 
715	-3.15952787458374 
716	-3.39831585241923 
717	-2.5291379159706 
718	-0.408524105521419 
719	 0.1332478900437 
720	-2.25046288354834 
721	-3.1001306694575 
722	-3.43000929874338 
723	-3.52915697837848 
724	-2.6511317370904 
725	-3.00034033856555 
726	-3.46551778998343 
727	-1.86657377681913 
728	-1.50091895565878 
729	-2.33528808139125 
730	-3.40154386473548 
731	-2.32912479608843 
732	-1.95936756894886 
733	-2.81074098128188 
734	-2.13963199576001 
735	-3.30829369626916 
736	-4.49824033516157 
737	-2.20965750977582 
738	-2.02163081143618 
739	-2.41306235861717 
740	-1.7478725205693 
741	-2.23833612071289 
742	-3.09610835252459 
743	-3.67413395591248 
744	-3.50961465712295 
745	-2.67313598534232 
746	-1.46356851993185 
747	-0.432133649580175 
748	-1.06826067510913 
749	-2.16381783190798 
750	-2.49172166373345 
751	-2.28070978139418 
752	-2.67425150901779 
753	-3.36258583250571 
754	-1.99990929269428 
755	-0.869442545460394 
756	-0.900458527440837 
757	-2.28025904048994 
758	-2.7274889430586 
759	-3.1620082803531 
760	-4.19615319005947 
761	-3.65940465043106 
762	-3.23014051869808 
763	-3.52458315159053 
764	-3.98525345641834 
765	-3.38894351918347 
766	-2.88977225588753 
767	-4.11958424047489 
768	-3.18012158962719 
769	-2.15748982390969 
770	-2.43876732634172 
771	-0.741099893026427 
772	-0.773549734473067 
773	-2.47599963284882 
774	-1.8690603501703 
775	-2.34192433621967 
776	-3.21513204271292 
777	-2.73695877698828 
778	-1.49233954916167 
779	-0.687908720292538 
780	-0.977241619205387 
781	-1.6879601112197 
782	-1.86994723806098 
783	-1.81479133747654 
784	-2.89336412255788 
785	-2.94231806012398 
786	-2.62150783119529 
787	-2.97680585010635 
788	-2.2087055744519 
789	-1.6155005384708 
790	-1.87312601402874 
791	-1.96219362937348 
792	-2.45481151085547 
793	-2.82197277310782 
794	-1.97736524924166 
795	-3.25881186092667 
796	-3.81240772564674 
797	-1.22763091990012 
798	-1.23988330225202 
799	-2.2190891054364 
800	-2.83452980503073 
801	-2.51086938787754 
802	-2.52795564040663 
803	-2.79122517118701 
804	-2.60123752984673 
805	-2.01153355929503 
806	-1.76289736045432 
807	-2.32998863111425 
808	-3.22821156802211 
809	-3.05103422165137 
810	-1.59166839423407 
811	 0.121632692344799 
812	-0.188911740209676 
813	-1.38110327705431 
814	-1.37793432742152 
815	-1.20427736891573 
816	-1.00379429052562 
817	-1.17561057084392 
818	-3.31045847381924 
819	-3.28335258947123 
820	-1.53436573842168 
821	-1.57160477168095 
822	-1.55932084255046 
823	-1.78224088292318 
824	-2.63416675551999 
825	-3.40794221159246 
826	-2.79584545127918 
827	-1.15766031371784 
828	-1.39115743365906 
829	-0.749632222244434 
830	 1.54820964268892E-02 
831	-0.993040275161019 
832	-2.71636348313385 
833	-2.85420207597288 
834	-1.003980049343 
835	-2.16792945671324 
836	-3.0194396001447 
837	-2.82832620205496 
838	-2.82725307115121 
839	-2.91204132501472 
840	-2.01908529826743 
841	-3.94655676617502E-02 
842	-2.82733111069698 
843	-4.70319639184276 
844	-3.42512932209716 
845	-2.49918884239463 
846	-2.62842806410493 
847	-2.83585773443227 
848	-1.52821104888492 
849	-0.351801355168465 
850	-0.838671755086466 
851	-2.86460506370858 
852	-2.15591327409705 
853	-1.60292184653024 
854	-1.54002864785959 
855	-0.580145853474151 
856	-0.579654415566319 
857	-1.85278512701483 
858	-3.73056740597538 
859	-3.2522799122225 
860	-2.03769750049992 
861	-1.19240743633158 
862	-1.01818418343697 
863	-1.78255146463433 
864	-3.00185786584002 
865	-3.7608206488198 
866	-2.46418884388939 
867	-1.26830986111418 
868	-1.42940598641371 
869	-1.836099119507 
870	-2.66376890756146 
871	-3.48500710662359 
872	-3.66484238811225 
873	-3.9206318169219 
874	-3.84255962063029 
875	-3.19185087010144 
876	-2.66837802739912 
877	-2.20459670310559 
878	-1.77926749376209 
879	-1.41947720037176 
880	-2.07858913812131 
881	-2.98494892241732 
882	-3.2707884342944 
883	-3.49487889618829 
884	-3.324050967544 
885	-2.65938983643552 
886	-1.66710966296555 
887	-1.51237013045066 
888	-1.86041263899264 
889	-1.99954927580557 
890	-2.20804026164349 
891	-2.45796769621998 
892	-2.59125746207503 
893	-2.28038353709571 
894	-1.14716976480574 
895	-0.505734578216174 
896	-1.82088847280293 
897	-2.05797444077643 
898	-1.46766055469664 
899	-1.02871775965096 
900	-2.85724285032734 
901	-2.97066323135626 
902	-1.52624844350675 
903	-0.73302630977562 
904	-1.41975793319821 
905	-2.67370733291634 
906	-3.34585800874523 
907	-2.11839450795076 
908	-1.7766987375024 
909	-2.55385604036691 
910	-3.0984105989768 
911	-2.41515639340943 
912	-1.66001956663374 
913	-1.82860836985602 
914	-2.61163748455192 
915	-2.69016877112518 
916	-2.26372148719964 
917	-2.53940095439511 
918	-2.74593008968514 
919	-2.85888221136755 
920	-2.77616767067671 
921	-1.60478579689637 
922	-1.36453290879543 
923	-1.95708470620674 
924	-1.74223177140007 
925	-1.06954562870883 
926	-1.12137120333876 
927	-2.39005874591923 
928	-2.88216753234789 
929	-2.85687276326698 
930	-2.38234101719295 
931	-1.4357903820027 
932	-1.84519554807094E-02 
933	-0.269801075154774 
934	-2.8721462971177 
935	-3.27223881193414 
936	-2.65303939926461 
937	-2.41823712463336 
938	-3.87079774315403 
939	-2.15377908748024 
940	-0.701019632883708 
941	-2.029866646736 
942	-1.94240908144141 
943	-1.23157588560173 
944	-1.06019392791501 
945	-2.71250434658812 
946	-4.5072475189856 
947	-4.68247374784655 
948	-2.9906379844669 
949	-2.81474956180324 
950	-2.23706310679462 
951	-1.58184033221019 
952	-2.15174577912982 
953	-2.86928509728122 
954	-2.498574031975 
955	-1.24965858207892 
956	-2.57975412394016 
957	-3.03791550984023 
958	-2.10370743976012 
959	-0.781788740125015 
960	-1.5467151971535 
961	-2.28975316936196 
962	-1.82745930539394 
963	-1.10450007243799 
964	-1.67805391043274 
965	-2.58274895969909 
966	 0.618566895203578 
967	 1.64613793955336 
968	 4.23193533471588 
969	 4.10823647756099 
970	 2.97682835626723 
971	 1.56394317389342 
972	-3.18483453404945 
973	-4.16635531619217 
974	-2.39805896046646 
975	-1.30784366610257 
976	 1.29844044145983 
977	 2.27627872086371 
978	 1.60151666384026 
979	 0.103879011121552 
980	-0.982562582828015 
981	-2.87315745739034 
982	-2.89491837713009 
983	-1.59859051370119 
984	-3.15059633665165 
985	-2.78783376880705 
986	-1.9824577421931 
987	-0.815713042099586 
988	-1.09327881361731 
989	-0.612707262090209 
990	-1.27619007320614 
991	-4.8110100737557 
992	-6.46682526087654 
993	-8.35313154293849 
994	-6.152302987111 
995	-4.95558630358029 
996	-3.8043606440125 
997	 1.27439354449631 
998	 1.93075323763768 
999	 0.705820976987351 
1000	 3.07143043347741 
1001	 1.87013953792101 
1002	 2.3773999777282 
1003	 3.53167621095581 
1004	 0.951023108952153 
1005	 0.605919042601516 
1006	 1.60877235169146 
1007	 1.28250423561397 
1008	 1.92622458637837E-02 
1009	 1.01838605043812 
1010	 4.55626722081701 
1011	 6.29380030020167 
1012	 3.50664749446354 
1013	 2.35255024280318 
1014	-0.756024012883527 
1015	-2.83392442818349 
1016	 2.31035120185986 
1017	 3.64093514572325 
1018	 3.20488066673574 
1019	 3.06558474794055 
1020	 0.790234212563304 
1021	 2.66964528354887 
1022	 5.47375061447169 
1023	 6.18846489832557 
1024	 5.14418346454793 
1025	 4.18943265019121 
1026	 3.40702305230878 
1027	 1.87308751459622 
1028	 1.06159085831986 
1029	-1.26663719727993 
1030	-1.05709231524371 
1031	 1.50583338279188 
1032	 0.823408856287053 
1033	 3.01972336307905 
1034	 3.094676524294 
1035	-0.285738813941675 
1036	 0.110628354194282 
1037	 1.15421017877329 
1038	 0.916762579966905 
1039	 1.97268764340576 
1040	 2.71666462313855 
1041	 3.63278483576104 
1042	 3.71827618795125 
1043	 4.0817511402669 
1044	 2.36935841206207 
1045	 0.256602543544042 
1046	-0.125505958981348 
1047	 1.19537751999241 
1048	 3.05096018228682 
1049	 5.32158200633579 
1050	 8.03372539986548 
1051	 7.23114717889479 
1052	 6.89141841499286 
1053	 7.0696563670547 
1054	 4.998780650126 
1055	 4.4536826175773 
1056	 2.65477550454421 
1057	 1.23012641104536 
1058	 0.169655949104797 
1059	-0.473450343558963 
1060	-2.43207842676413 
1061	-1.49105151760496 
1062	 2.14223987719137 
1063	 3.74948174264875 
1064	 5.1091529565302 
1065	 4.93158365330104 
1066	 2.96368868657316 
1067	 1.16888470459508 
1068	 0.175963610947613 
1069	 2.83844874524169 
1070	 5.42072160968581 
1071	 6.63967350672449 
1072	 7.75336558741056 
1073	 5.12475960891247 
1074	 4.49917820613913 
1075	 3.3324973808694 
1076	 2.95778668407526 
1077	 4.80137688436049 
1078	 4.17401355396694 
1079	 1.69446204913547 
1080	-0.296773399460598 
1081	-4.32453865917183 
1082	-5.43368466207145 
1083	-4.41435123163106 
1084	-3.84017675986036 
1085	-4.29372938623341 
1086	-4.97835912117586 
1087	-4.79265948899078 
1088	-6.66963564370728 
1089	-5.87896634857386 
1090	-3.50401324267659 
1091	-1.83119175177671 
1092	 0.412095194660332 
1093	 1.70292301039909 
1094	 3.19840438018636 
1095	 3.05575628032969 
1096	 0.146711665023556 
1097	-0.196392092376905 
1098	 0.297493025021088 
1099	 0.596220104690368 
1100	 2.5393394636626 
1101	 3.02915855562125 
1102	 1.99355237542836 
1103	 1.50468498361968 
1104	 0.128152504083121 
1105	 0.711915934714473 
1106	 1.29437129520884 
1107	 0.996469632962 
1108	 0.606351800706035 
1109	 2.29490102762983 
1110	 2.93602327841211 
1111	 3.42841839605929 
1112	 4.39532565120294 
1113	 5.99484502477654 
1114	 5.75584150428755 
1115	 4.93315291621047 
1116	 4.23407190948167 
1117	 2.17131668093853 
1118	 1.14069401405184 
1119	 0.193007206451074 
1120	 8.53105804092437E-02 
1121	 1.90255151585829 
1122	 1.59523029047356 
1123	-0.476555860502626 
1124	-0.394957837299794 
1125	 1.32307662295267 
1126	-0.192128191442897 
1127	-1.159850923774 
1128	-0.91920713939812 
1129	-1.18350990299012 
1130	-4.44932527048071 
1131	-3.27564495201083 
1132	 2.69921916258611 
1133	 3.50797668332636 
1134	 3.45615638475713 
1135	 2.79633560204081 
1136	-1.46558225611127 
1137	-2.84740283931089 
1138	-3.67751334849752 
1139	-2.91818240495342 
1140	 0.123876081409102 
1141	 1.69103569984534 
1142	 4.72670691913496 
1143	 6.15196893019758 
1144	 6.24587258081677 
1145	 5.66990486279967 
1146	 2.96329580017407 
1147	 1.95649775087638 
1148	 1.3269089699039 
1149	-0.173138228268374 
1150	 0.970689350153494 
1151	 5.31075734801454 
1152	 6.20487242911712 
1153	 6.57453429694657 
1154	 7.19556303565124 
1155	 6.23256131462061 
1156	 6.31905519127056 
1157	 8.23645358907112 
1158	 8.03243461589511 
1159	 6.75727584430886 
1160	 5.23372036903506 
1161	 1.73706791531045 
1162	 0.382664937117731 
1163	-0.555284702247458 
1164	-1.0704749300359 
1165	 1.17632325588885 
1166	 1.04844157829015 
1167	-1.3043747608709 
1168	-2.27979695427992 
1169	-3.10192604381228 
1170	-1.49785491638014 
1171	-0.419730952843888 
1172	 3.68999045401278 
1173	 3.29609921823966 
1174	-0.481921795128868 
1175	-0.942611879772693 
1176	-2.12731898970869 
1177	-1.35743817044326 
1178	 3.45116128422548 
1179	 4.09589862091464 
1180	 3.13972475980249 
1181	 2.50044122992531 
1182	-0.10088474841591 
1183	-1.24915369039437 
1184	-2.02673466986677 
1185	-2.4095968802136 
1186	-1.54290723067412 
1187	-1.68612210738582 
1188	-3.07864143919493 
1189	-2.5747317960834 
1190	-0.598356190598876 
1191	-0.417202779116981 
1192	 7.41536489303696E-02 
1193	 1.62537280395583 
1194	 1.40044998130903 
1195	 3.28120330977817 
1196	 5.67211946501405 
1197	 11.2164289106513 
1198	 12.0961684245093 
1199	 10.6558934979153 
1200	 10.4677262721677 
1201	 9.27354666484955 
1202	 7.97757522098544 
1203	 6.9378873332315 
1204	 6.73419279650243 
1205	 4.47467633715063 
1206	 4.95492608039414 
1207	 10.674931702305 
1208	 11.2270007112565 
1209	 9.47822643959249 
1210	 8.77109048392908 
1211	 5.71010171212077 
1212	 3.31341749147121 
1213	 3.84734935528843 
1214	 4.00899269351731 
1215	 5.59157910328753 
1216	 5.98408540125992 
1217	 5.31069070976581 
1218	 5.69320688441233 
1219	 4.67974599359545 
1220	 4.91198635466425 
1221	 5.22323383064302 
1222	 7.07054916069334 
1223	 6.47118159482057 
1224	 4.21056437643502 
1225	 3.59794771496138 
1226	 3.61113260652931 
1227	 2.66294081526468 
1228	 1.63804200695136 
1229	 1.51683997015505 
1230	-0.195167607267999 
1231	-0.460341884696393 
1232	 2.24035833245416 
1233	 2.67167314163542 
1234	 2.07245682672196 
1235	 2.57406283550038 
1236	 3.87802352607944 
1237	 2.15086580819787 
1238	 2.44678284358282 
1239	 5.14185697589649 
1240	 5.6420758194341 
1241	 7.58595078076859 
1242	 9.46164071704464 
1243	 3.06232232646805 
1244	-2.79022895928382 
1245	-4.74649746914709 
1246	-5.53208487631328 
1247	-0.381285911484839 
1248	 5.33747752775154 
1249	 6.96485113467383 
1250	 9.29835138857645 
1251	 11.2117019002592 
1252	 11.8506057465968 
1253	 11.7935928709582 
1254	 11.5617113097568 
1255	 8.74288960248396 
1256	 6.76916365882499 
1257	 6.34982614215033 
1258	 4.76028941312419 
1259	 1.89220553831395 
1260	 0.907938020735205 
1261	 0.328278164824069 
1262	-1.77480950027915 
1263	 1.49263405591473 
1264	 4.59266096323356 
1265	 3.38720652691585 
1266	 4.79777418263931 
1267	 5.05642902764304 
1268	 4.56749623154995 
1269	 8.10336906389777 
1270	 11.6872345947953 
1271	 12.6619715022298 
1272	 12.096167353787 
1273	 10.315749336076 
1274	 7.37719446114813 
1275	 6.9923112355593 
1276	 6.15430437580623 
1277	 4.30206602770449 
1278	 5.9850044892719 
1279	 6.9238126529674 
1280	 7.43528657680826 
1281	 8.0384812290876 
1282	 9.70958417165224 
1283	 10.253550563262 
1284	 9.46648714165927 
1285	 9.8253202674745 
1286	 12.3944710520533 
1287	 11.6305660620862 
1288	 9.13323743409856 
1289	 6.70806038344461 
1290	 4.38360671519226 
1291	 1.06999728944671 
1292	-2.06805524911768 
1293	-2.0767736111381 
1294	-3.54643555508113 
1295	-4.83942412219317 
1296	-3.48007361543976 
1297	-2.20599497960299 
1298	 1.13222058028785 
1299	 1.96190969176211 
1300	 0.174079197571404 
1301	-0.600491608121024 
1302	-2.8777678028478 
1303	-4.75226606377719 
1304	-1.6130856022926 
1305	 0.200673298913074 
1306	 1.7337090394718 
1307	 6.61960746963029 
1308	 8.70972961013229 
1309	 11.4342931836882 
1310	 13.0182866962639 
1311	 12.0790414871919 
1312	 13.0866967497173 
1313	 15.9708951053072 
1314	 15.1157471909118 
1315	 12.8446586722588 
1316	 12.1862758110251 
1317	 8.53338039432213 
1318	 7.26219609012998 
1319	 8.63767906249371 
1320	 10.4147310774571 
1321	 10.1539160412486 
1322	 11.3452117500509 
1323	 13.2589354535359 
1324	 12.8718154107229 
1325	 13.0746549964095 
1326	 12.6777679072235 
1327	 11.2344207946155 
1328	 11.9295144684361 
1329	 11.4135039059513 
1330	 9.15795788108389 
1331	 7.36492610859395 
1332	 6.59150260782545 
1333	 7.9341190238903 
1334	 9.51697377251852 
1335	 10.3012416686228 
1336	 9.60296288919565 
1337	 7.19866583937997 
1338	 4.73243368182014 
1339	 3.12530223266628 
1340	 4.43150302696774 
1341	 4.63551143850683 
1342	 3.53551215708675 
1343	 4.86736381266845 
1344	 3.49018373077631 
1345	 3.20671792456524 
1346	 6.16793045367581 
1347	 6.99021503122893 
1348	 7.22827016403968 
1349	 8.075188167479 
1350	 7.88737688964405 
1351	 7.60758706748913 
1352	 8.51239149717788 
1353	 7.54769358513386 
1354	 4.60893834113791 
1355	 3.32416593891208 
1356	 4.5108788691885 
1357	 4.58910666594144 
1358	 6.68860783748462 
1359	 9.03951939815932 
1360	 7.78851692521294 
1361	 6.62626018959165 
1362	 6.28573339835147 
1363	 4.92348611485906 
1364	 5.9629222029663 
1365	 7.16356627747435 
1366	 5.55711380214964 
1367	 6.11834802571344 
1368	 7.17586695760867 
1369	 6.20488439731708 
1370	 7.88172600854805 
1371	 11.068147761241 
1372	 11.3249685946418 
1373	 13.3076131981047 
1374	 17.5733798370709 
1375	 17.6968626615864 
1376	 16.8006646590711 
1377	 19.5367913673894 
1378	 18.8705759966821 
1379	 14.0412809640537 
1380	 12.0401615152429 
1381	 8.08045530393586 
1382	 6.33194424966218 
1383	 10.4810572763189 
1384	 11.6599396795076 
1385	 14.6426676267321 
1386	 16.7948059354509 
1387	 15.5484268394239 
1388	 17.4718064992249 
1389	 18.6460974862011 
1390	 17.8153557414165 
1391	 14.544329787545 
1392	 13.2078179131016 
1393	 10.8808815065347 
1394	 8.81621178393962 
1395	 7.5462181524771 
1396	 7.14838583626166 
1397	 5.27841690696797 
1398	 4.23650572844407 
1399	 3.45715572387604 
1400	 5.46466340805524 
1401	 7.46742192599924 
1402	 9.74829040867388 
1403	 9.248518748072 
1404	 6.36932448585524 
1405	 6.87522766062405 
1406	 6.02591303244302 
1407	 8.15129585450713 
1408	 11.6548108488513 
1409	 12.172410726649 
1410	 13.67230756596 
1411	 13.6441616008268 
1412	 11.3565407897396 
1413	 10.0836646642012 
1414	 8.47748106571694 
1415	 7.01383093434842 
1416	 9.22617810259315 
1417	 10.2551324801236 
1418	 9.44508729955041 
1419	 11.5389237210441 
1420	 14.0053968371785 
1421	 17.9183133870268 
1422	 19.9269186478589 
1423	 16.7221178174528 
1424	 13.5626504432424 
1425	 9.95345440712607 
1426	 7.81428389534529 
1427	 8.27996565744893 
1428	 10.9146025981461 
1429	 11.3558784171144 
1430	 11.8331141245372 
1431	 16.0618641836105 
1432	 16.148906062318 
1433	 16.2415165417171 
1434	 16.5081487999969 
1435	 16.1758157888705 
1436	 16.5577389365989 
1437	 15.0054716944901 
1438	 15.6233724340621 
1439	 14.3245594979359 
1440	 12.1089723750268 
1441	 13.1955824121924 
1442	 12.4571715700555 
1443	 10.0943708995528 
1444	 8.43204291240006 
1445	 7.0161024130558 
1446	 3.98364899213826 
1447	 3.50017507681878 
1448	 6.05799350517239 
1449	 6.76227321677711 
1450	 7.67490428742402 
1451	 8.38603091498682 
1452	 8.64014416158335 
1453	 7.5337527444135 
1454	 7.41542849444167 
1455	 7.75153963667009 
1456	 9.86971275300296 
1457	 12.272647578551 
1458	 13.3708759633254 
1459	 15.2458329226176 
1460	 15.6002156027213 
1461	 14.9968368437718 
1462	 13.5094345850944 
1463	 12.5819933271283 
1464	 13.0450546998961 
1465	 11.8924422495245 
1466	 13.0546849001927 
1467	 15.839780909579 
1468	 14.07488411422 
1469	 13.5431160555137 
1470	 14.6820660038009 
1471	 13.0360671312974 
1472	 14.269957276362 
1473	 12.7074795487508 
1474	 9.51206348527516 
1475	 12.0586037517041 
1476	 13.0349648892845 
1477	 16.1473260104003 
1478	 20.9605259973019 
1479	 19.8717840297301 
1480	 20.6964985579386 
1481	 21.1737519502677 
1482	 17.0083915913143 
1483	 15.6932326779368 
1484	 13.1283625828948 
1485	 9.40519685400313 
1486	 10.4661165766465 
1487	 10.1066192380647 
1488	 7.80173402166496 
1489	 8.10497684592301 
1490	 6.92624997813856 
1491	 4.1024966715669 
1492	 3.71379997527783 
1493	 3.33127430834369 
1494	 1.96929109560835 
1495	 2.74981259952326 
1496	 4.84727821937026 
1497	 6.45846981011735 
1498	 9.34439452954095 
1499	 11.6716785192523 
1500	 12.9535241069113 
1501	 11.2373912774431 
1502	 8.13372004140362 
1503	 9.44325727358118 
1504	 8.97377809143349 
1505	 8.9999765670292 
1506	 10.3734224536511 
1507	 10.3615666700191 
1508	 13.6304794814296 
1509	 16.3269205459417 
1510	 16.7702977558561 
1511	 15.7964413783408 
1512	 14.2566241204363 
1513	 12.5521384255351 
1514	 12.0395410857982 
1515	 12.2923586449661 
1516	 9.57874864696608 
1517	 8.5810431378731 
1518	 9.60669369083704 
1519	 11.0129862336252 
1520	 13.7695552783351 
1521	 13.7325231854176 
1522	 13.1485300157876 
1523	 14.6175465905736 
1524	 17.2809654631996 
1525	 19.3780767385484 
1526	 19.1496557455345 
1527	 18.7077190471806 
1528	 17.2527908279481 
1529	 16.176729538982 
1530	 14.6919323616087 
1531	 12.8320720815374 
1532	 9.79480528333134 
1533	 5.24589103969215 
1534	 5.7018917520376 
1535	 6.92306607169339 
1536	 7.2279650897955 
1537	 10.1948986087156 
1538	 9.99167312287207 
1539	 8.41310318340901 
1540	 11.7993235348205 
1541	 14.0806054586768 
1542	 15.9700999585266 
1543	 19.3062622842502 
1544	 16.8491904099466 
1545	 15.2202567786683 
1546	 17.428599754893 
1547	 17.3137840231582 
1548	 19.5470133687708 
1549	 20.8342455493098 
1550	 18.0181350832915 
1551	 16.8716392978822 
1552	 17.2729851518774 
1553	 18.0110853259963 
1554	 18.4563509428835 
1555	 18.8162282269886 
1556	 18.8526084334684 
1557	 17.7288413258614 
1558	 15.577848366478 
1559	 13.6157417961946 
1560	 11.2989986639116 
1561	 9.16577353614048 
1562	 9.81480472381425 
1563	 12.2224247025743 
1564	 13.1104032079127 
1565	 14.8251917928416 
1566	 17.0114688953408 
1567	 16.7959306762555 
1568	 18.5376813557641 
1569	 19.8182750069691 
1570	 19.7208003357066 
1571	 20.7232381291921 
1572	 19.6406879535421 
1573	 15.9193745632467 
1574	 12.2295871866824 
1575	 10.0622879871969 
1576	 10.3553205933597 
1577	 14.181427953739 
1578	 17.3816843430837 
1579	 19.4375182480247 
1580	 20.3400417932798 
1581	 18.5483789825098 
1582	 15.1705329599608 
1583	 9.96749121208076 
1584	 6.78918898050382 
1585	 4.84802547089022 
1586	 5.37267094288725 
1587	 8.834023536742 
1588	 10.7480416797561 
1589	 12.9885249671518 
1590	 14.8700409141357 
1591	 16.3355533797412 
1592	 16.9118515204216 
1593	 16.1130525593333 
1594	 16.6859491782322 
1595	 17.0125790343382 
1596	 16.703737085236 
1597	 16.2583717998482 
1598	 14.594911521071 
1599	 13.4970495118062 
1600	 13.7518925574427 
1601	 15.4190016684361 
1602	 17.6993010735531 
1603	 16.7315798840413 
1604	 13.8505993944374 
1605	 13.44438668498 
1606	 12.8590952484206 
1607	 12.52595829034 
1608	 14.3972619877612 
1609	 12.7421199110066 
1610	 10.1854429101554 
1611	 11.9352215717496 
1612	 12.5165378113945 
1613	 12.9194834155347 
1614	 16.4151924901542 
1615	 16.6548913117022 
1616	 16.7991990640609 
1617	 18.18648900448 
1618	 16.8925873088229 
1619	 17.7514532461591 
1620	 17.9660761986683 
1621	 17.3765948595349 
1622	 17.7164670945411 
1623	 14.5916003215125 
1624	 12.9345835247686 
1625	 15.4859899376296 
1626	 17.1648688255442 
1627	 18.1890358963232 
1628	 16.6402654701899 
1629	 14.2433592062962 
1630	 13.6034344430998 
1631	 10.0853245491053 
1632	 9.25670394108581 
1633	 10.2068029624304 
1634	 11.907491428475 
1635	 13.2147670514162 
1636	 15.3062590397311 
1637	 15.9667045316676 
1638	 15.9941928929047 
1639	 14.5144544071688 
1640	 12.0552177059055 
1641	 9.59189635203678 
1642	 3.03964184205888 
1643	 0.766939030619165 
1644	 0.725756363562957 
1645	 1.86571827214794 
1646	 8.4965234578793 
1647	 10.5975630975458 
1648	 9.95138574065319 
1649	 10.8861761941131 
1650	 9.90615895628547 
1651	 10.3439591189864 
1652	 13.8502564310063 
1653	 14.8183750502586 
1654	 14.1576705263929 
1655	 14.2924396135472 
1656	 14.7217116110525 
1657	 14.0616117725744 
1658	 12.0166448242254 
1659	 11.8608791945457 
1660	 11.2749459212513 
1661	 11.5548566166956 
1662	 14.6074235123958 
1663	 15.3854517575755 
1664	 15.48728441345 
1665	 14.7478411131363 
1666	 12.0992724204195 
1667	 11.8455194172972 
1668	 12.6200682298301 
1669	 11.3144622044167 
1670	 9.99701176205235 
1671	 9.52622743291997 
1672	 7.44699317461541 
1673	 7.22308710670682 
1674	 9.54045666195297 
1675	 10.2515408057222 
1676	 9.91648462007732 
1677	 10.3889285584203 
1678	 11.4975074240996 
1679	 11.8231039724215 
1680	 12.1188633460366 
1681	 11.9215450616343 
1682	 11.2215942541706 
1683	 11.1626555591804 
1684	 10.3639425561903 
1685	 9.85912341127873 
1686	 9.83389886354114 
1687	 9.26188290324255 
1688	 9.20769817125733 
1689	 11.2149343694905 
1690	 10.7004026185965 
1691	 8.83396129930562 
1692	 7.03256111123298 
1693	 0.526129984589646 
1694	-0.717141049080934 
1695	 2.81898499564546 
1696	 4.05873682729293 
1697	 8.71897812214765 
1698	 9.8642649829557 
1699	 6.31838952746569 
1700	 5.19562541070001 
1701	 3.57011318355895 
1702	 3.22219059713496 
1703	 4.92178631060352 
1704	 5.42931770402489 
1705	 5.64618281943737 
1706	 6.3027459592116 
1707	 6.09015508998917 
1708	 7.66038035932297 
1709	 11.7515605216391 
1710	 13.002180573687 
1711	 14.0738137013279 
1712	 13.9543473823112 
1713	 11.4805858148746 
1714	 9.82166977949274 
1715	 7.57499001914932 
1716	 6.96455371435464 
1717	 6.53366530451838 
1718	 7.03649342105671 
1719	 9.95878273731874 
1720	 10.3717261416117 
1721	 9.65212827647293 
1722	 9.66784903834973 
1723	 8.79958516849703 
1724	 8.94104344382565 
1725	 9.74918828584529 
1726	 11.617981675701 
1727	 13.5807559123567 
1728	 13.9356953343792 
1729	 13.6856839523608 
1730	 9.62191936750357 
1731	 6.86353009606542 
1732	 9.24383397471517 
1733	 10.7619073738035 
1734	 16.2800224501149 
1735	 18.5097600704963 
1736	 18.5718119198245 
1737	 17.3634818041852 
1738	 13.3852732717951 
1739	 10.7442365559737 
1740	 6.72970797334052 
1741	 4.57582036843093 
1742	 3.83185148991279 
1743	 3.90046626178247 
1744	 5.35510645952817 
1745	 6.55468698741587 
1746	 9.34629775042781 
1747	 9.56180917996802 
1748	 8.2012645335297 
1749	 7.46022408482116 
1750	 6.01984649209339 
1751	 4.48799678913612 
1752	 1.94158131770767 
1753	 2.98553308192612 
1754	 5.04225631144597 
1755	 8.70286403077401 
1756	 26.6270743055114 
1757	 30.4129024831549 
1758	 7.85907446425661 
1759	 7.60437613166644 
1760	 9.54206526329186 
1761	 16.6373212394206 
1762	 24.4866581035718 
1763	 45.563828236608 
1764	 44.6155701875073 
1765	 22.0485456753535 
1766	 12.3272327780559 
1767	-7.52501720006038 
1768	-11.3189050233332 
1769	-3.25207420289446 
1770	 9.35136521242684 
1771	 13.1343190144771 
1772	 11.6268107833625 
1773	 13.4009745665937 
1774	 8.21973157876471 
1775	 9.2993897336528 
1776	 18.6300967425358 
1777	 19.4199243526125 
1778	 19.6089717063026 
1779	 10.7809786712779 
1780	-10.1287160902204 
1781	-8.63279615488328 
1782	-16.5529220070481 
1783	-19.8252071682309 
1784	-15.2980152837232 
1785	 2.97890554016373 
1786	 1.90247238449815 
1787	 11.2752392764356 
1788	 21.3708225169559 
1789	 6.50110054094086 
1790	 1.80586301440769 
1791	 3.73490384504652 
1792	 2.1217601822386 
1793	 10.0053061538093 
1794	 11.2476656356976 
1795	 16.0249194992798 
1796	 12.3146365566637 
1797	 2.57489413149266 
1798	 3.0085612558916 
1799	 19.1684620572397 
1800	 32.2115837697138 
1801	 46.8091139994978 
1802	 46.0342179485517 
1803	 42.6871427610129 
1804	 23.8580039828824 
1805	 17.8158729959726 
1806	 7.63937501642544 
1807	 14.4077526756903 
1808	 17.5984025621459 
1809	 10.7710012040403 
1810	 2.30134357606169 
1811	-7.81292860654567 
1812	-7.40833004232974 
1813	 3.43536311481381 
1814	 6.91472740342712 
1815	 19.8269005113316 
1816	 21.4364453003367 
1817	 11.7480006985611 
1818	 0.185180964148427 
1819	 0.762752844531074 
1820	 3.6686946819537 
1821	 8.44485053911587 
1822	 26.5562179435023 
1823	 31.1947500417174 
1824	 26.6693844619766 
1825	 27.5466448775251 
1826	 31.2990293023168 
1827	 28.7635004097218 
1828	 20.8549849339637 
1829	 19.9376897024474 
1830	 14.7132752712804 
1831	-2.15696596441133 
1832	-3.16690763848196 
1833	 9.18590426896051 
1834	 10.9987628233797 
1835	 16.0736874634475 
1836	 16.8473639309335 
1837	 4.22509582617242 
1838	 2.87577149841406 
1839	 9.34467995959093 
1840	 12.1371176292677 
1841	 17.5467446521233 
1842	 29.5082964292464 
1843	 34.3177047384371 
1844	 38.0179723175361 
1845	 38.0734120804442 
1846	 34.2998138124453 
1847	 32.9786213701221 
1848	 31.8972548583217 
1849	 21.4271706117203 
1850	 25.9603724744384 
1851	 25.2975436450215 
1852	 25.7106225784289 
1853	 34.0534148742384 
1854	 30.8769969992415 
1855	 16.2961667485326 
1856	 11.7766646145329 
1857	 4.18840804352184 
1858	-1.47867042724823 
1859	 12.8437778252269 
1860	 22.6314317209858 
1861	 29.0013938653618 
1862	 35.4934591810263 
1863	 38.5577284747629 
1864	 31.4005444776935 
1865	 33.4595594904101 
1866	 46.6292596502748 
1867	 46.9577528377728 
1868	 40.9926455492812 
1869	 40.1864061726148 
1870	 32.4269368406528 
1871	 20.2572473894801 
1872	 21.5234986800812 
1873	 30.4890461769892 
1874	 39.9957446375444 
1875	 43.7397904290463 
1876	 48.666537740554 
1877	 54.76695736661 
1878	 55.8987796301325 
1879	 53.6719599831316 
1880	 52.4551552971302 
1881	 41.4079190875955 
1882	 32.6146177985836 
1883	 30.519104042886 
1884	 33.4878958235379 
1885	 40.1954414689777 
1886	 42.1771991841637 
1887	 38.8589598308174 
1888	 28.6472639370579 
1889	 12.6704364698982 
1890	 6.52197292262942 
1891	-5.19657470370638 
1892	-16.3309766285622 
1893	-14.0892856616892 
1894	-16.3829882259893 
1895	-5.16455514874066 
1896	 11.9118066781272 
1897	 18.8968055596504 
1898	 26.8479507084379 
1899	 26.8285848351598 
1900	 17.8560939135885 
1901	 2.59084089227314 
1902	-3.28664119752929 
1903	-6.13941140483331 
1904	-8.14682080906068 
1905	 0.780930118887011 
1906	 3.25155630390447 
1907	 1.22720302874879 
1908	 12.274469473707 
1909	 36.7554540702115 
1910	 47.1185235321079 
1911	 66.6672196278268 
1912	 74.4914723066803 
1913	 71.4132154691812 
1914	 57.9294771753429 
1915	 52.9521855828728 
1916	 37.0518231213289 
1917	 20.0266909473474 
1918	 14.595381265594 
1919	 8.80681980384787 
1920	 9.19918899920447 
1921	 4.26924783315054 
1922	-3.73409178683465 
1923	-6.89720773243184 
1924	-8.63388147750233 
1925	-11.0746667107284 
1926	-10.8230150405046 
1927	-11.0998609431688 
1928	-8.07117061065996 
1929	-10.6798216029527 
1930	-1.56432699741111 
1931	 24.4582937906038 
1932	 31.6132868298401 
1933	 38.1036798311395 
1934	 38.3453331229673 
1935	 19.2392693609602 
1936	 14.2557903974845 
1937	 17.1417146396888 
1938	 14.316480029621 
1939	 10.6675215740613 
1940	 9.94138394926661 
1941	 13.0120029451411 
1942	 15.0523408884886 
1943	 21.1592593733015 
1944	 38.3304781372759 
1945	 45.5270247850181 
1946	 50.5490156340667 
1947	 49.5976373901226 
1948	 38.2413104326274 
1949	 35.6325670717126 
1950	 27.9919115301742 
1951	 28.760635266583 
1952	 39.6909559377994 
1953	 56.2328668940854 
1954	 58.260066952507 
1955	 59.0032092144743 
1956	 54.0349048696894 
1957	 34.3230394713513 
1958	 25.6985030929482 
1959	 21.6917170625183 
1960	 13.6301465853612 
1961	 1.81512310964335 
1962	-2.91540344009545 
1963	-6.21055646355921 
1964	-8.67899818833998 
1965	-7.08803628488429 
1966	 1.25741205038382 
1967	-0.656962752579665 
1968	-9.33903268697845 
1969	-10.8373232197984 
1970	-16.1101463660163 
1971	-13.0418348604383 
1972	 1.61631403877676 
1973	 6.36815162293716 
1974	 8.11855443409112 
1975	 12.6883290233118 
1976	 18.0582286051623 
1977	 18.6760203164981 
1978	 19.955534105413 
1979	 21.9570751364989 
1980	 14.5808481466449 
1981	-8.95184483966663 
1982	-12.2003929616798 
1983	-9.99080866765362 
1984	-9.4142744101926 
1985	 2.89540577661973 
1986	 7.26499269002774 
1987	 2.08901723881608 
1988	 5.38424836825239 
1989	 12.0973466259293 
1990	 18.9199877401106 
1991	 38.2665615076266 
1992	 39.7030779758897 
1993	 38.7112885578193 
1994	 36.9462710931127 
1995	 32.2869624767388 
1996	 18.9504009731811 
1997	 14.6421359954336 
1998	 11.8221762017381 
1999	 12.6432419286226 
2000	 16.4772466397033 
2001	 19.6416669776063 
2002	 28.9032017087917 
2003	 33.1636505795241 
2004	 33.9047254067518 
2005	 36.268420974424 
2006	 43.4159087688579 
2007	 41.2816671720265 
2008	 42.9310653539786 
2009	 43.0635346980013 
2010	 38.6188647890587 
2011	 27.3681206646877 
2012	 22.9751140025274 
2013	 16.7200967604362 
2014	 15.887714092108 
2015	 24.5378167661848 
2016	 23.1110195343161 
2017	 17.1628513395054 
2018	 14.064409436067 
2019	 7.55776530032839 
2020	 9.62006595005538E-02 
2021	 6.15216588272255 
2022	 6.71049537520598 
2023	 0.354786812500977 
2024	-0.647647625091098 
2025	-5.04440693178615 
2026	-18.0611045755625 
2027	-19.8945532918239 
2028	-15.187538626821 
2029	-11.4316292798934 
2030	 1.24688048307993 
2031	 3.99020543153334 
2032	 5.783979500936 
2033	-3.54555827020363 
2034	-7.56210476223767 
2035	-17.0524391250481 
2036	-18.3453221428668 
2037	-10.4504424192087 
2038	-16.7501826347678 
2039	-15.1296101198445 
2040	-7.15445400275377 
2041	-3.52151105260112 
2042	 2.70303931364167 
2043	 19.0092322041922 
2044	 25.0573074967969 
2045	 20.3040726020671 
2046	 25.2057331514449 
2047	 39.0252019625757 
2048	 39.8357854995835 
2049	 39.3202702447729 
2050	 35.7800890391244 
2051	 17.0426431404758 
2052	-2.64617614682057 
2053	-11.6342967824904 
2054	-17.5138344509211 
2055	-19.2510077336952 
2056	-24.9703036659632 
2057	-28.0779614290145 
2058	-29.0299568460914 
2059	-25.2199841293887 
2060	-11.3178312030965 
2061	-3.38640051573644 
2062	 8.44643719791003 
2063	 10.202217965803 
2064	 3.86754643311764 
2065	-0.333608789684642 
2066	-8.26513061540569 
2067	-10.5429398051698 
2068	 2.9611364089332 
2069	 8.89207872098383 
2070	 8.13283358669349 
2071	 21.5857907892015 
2072	 29.2128297920245 
2073	 31.841594667777 
2074	 39.4323497785377 
2075	 34.365034719943 
2076	 29.7825487766077 
2077	 17.3069518982661 
2078	 10.3096553610834 
2079	 2.80878832148505 
2080	-0.289739111697817 
2081	-0.913704025394958 
2082	-2.55504280735492 
2083	 2.24447075469686 
2084	 9.60652434616989 
2085	 6.96184719202565 
2086	 14.9917935685149 
2087	 19.1041050907159 
2088	 15.4372040357793 
2089	 24.477449350333 
2090	 20.7739171377351 
2091	 14.3556773911767 
2092	 9.28474246064077 
2093	 5.85277599156546 
2094	 11.3786876136649 
2095	 12.5608177998994 
2096	 21.7917406739344 
2097	 25.3836753499503 
2098	 26.1008967945327 
2099	 14.9908482626755 
2100	 13.8820349480083 
2101	-0.555964849931814 
2102	-7.20299056847877 
2103	-0.296081174389973 
2104	 10.0864375692049 
2105	 24.2148449648021 
2106	 37.3952879612006 
2107	 47.7044378641278 
2108	 47.5934337461217 
2109	 46.4828521137698 
2110	 35.3338507071343 
2111	 20.7676770365899 
2112	 13.0839815675558 
2113	 9.59355655150704 
2114	 8.16131973178271 
2115	 16.0672925830875 
2116	 15.6236329653781 
2117	 11.6451218215583 
2118	 8.04099922155117 
2119	 1.64385463483969 
2120	-1.7692065958174 
2121	-3.82280031893002 
2122	-3.56263245982807 
2123	 3.15803020167837 
2124	 6.60266252096796 
2125	 8.74693270463008 
2126	 11.5444518684675 
2127	 2.83470963035161 
2128	 3.29013198939743 
2129	 11.2966351438862 
2130	 13.8139494279204 
2131	 21.0403885238492 
2132	 22.1686400716051 
2133	 9.79101412117992 
2134	 8.55678409539803 
2135	 7.45533751412079 
2136	 4.33804712716808 
2137	 3.21807704500942 
2138	 8.19365090491067 
2139	 5.5623353160571 
2140	-3.02442560472872 
2141	-0.962242731718518 
2142	-4.77232210814805 
2143	-0.967366420224668 
2144	 1.74612490081221 
2145	 3.21692237064589 
2146	 14.4112941858518 
2147	 12.7166723374635 
2148	 13.2252918023481 
2149	 20.1432390739877 
2150	 10.9200477589125 
2151	 6.42352862217229 
2152	 11.5073753356562 
2153	 13.1966151601159 
2154	 18.152584973131 
2155	 19.8176247098589 
2156	 27.4947701236256 
2157	 28.526764689028 
2158	 22.887278950318 
2159	 17.835563351469 
2160	 11.7869134884542 
2161	-14.2950734618897 
2162	-17.2784543329565 
2163	-2.9096378468103 
2164	-3.52958325509816 
2165	-1.22948026743404 
2166	-4.25786468997309 
2167	-25.7666868930767 
2168	-41.5268686836395 
2169	-53.0501592710964 
2170	-54.9359810772303 
2171	-51.1420146971435 
2172	-39.7676595959973 
2173	-20.095882145269 
2174	-6.38132864989692 
2175	 12.1608363099725 
2176	 29.5208967857278 
2177	 32.3874892378898 
2178	 36.5985359509134 
2179	 36.1471478621421 
2180	 24.5335972100311 
2181	 24.826500171149 
2182	 20.6643390950719 
2183	 18.3606925842199 
2184	 20.0861872917276 
2185	 22.6049013916992 
2186	 27.5141917521492 
2187	 29.0467491459328 
2188	 30.2027084069071 
2189	 25.1076283956587 
2190	 26.1564862130483 
2191	 24.5379309143344 
2192	 24.3024928652456 
2193	 24.6732560068416 
2194	 23.0311724927475 
2195	 15.2767625722107 
2196	 11.5416888964774 
2197	 6.68300535329387 
2198	-1.91770925916957 
2199	 6.01143122899459 
2200	 16.193101251756 
2201	 31.3758485811875 
2202	 48.875390340077 
2203	 53.813148215669 
2204	 51.2080344677604 
2205	 36.0844473545374 
2206	 13.4181775786674 
2207	-8.03578178000825 
2208	-17.3015867943436 
2209	-12.7018705905515 
2210	-8.72958496127018 
2211	 12.2399192932398 
2212	 14.6904406431925 
2213	 5.68521043324521 
2214	 3.03505743071567 
2215	-5.46560699483351 
2216	-9.4569368839151 
2217	-5.71141279775758 
2218	-6.9665420982507 
2219	-12.0594734834444 
2220	-15.8794894555981 
2221	-8.29874716515863 
2222	-1.20084422526651 
2223	 5.61461908715455 
2224	 15.3617741768873 
2225	 7.12238419934631 
2226	-6.15052696325695 
2227	-11.107346791784 
2228	-18.2147312349704 
2229	-13.705838494024 
2230	-9.59719941810205 
2231	-17.1044824752033 
2232	-22.2202892227388 
2233	-28.2931245847581 
2234	-24.1331359547951 
2235	-15.0751150732141 
2236	-6.50686482992335 
2237	 1.41367216397745 
2238	-6.0698647455067 
2239	-12.8660221048864 
2240	-15.6660842102779 
2241	-20.8634954192782 
2242	-18.6302871802898 
2243	-17.8315570719698 
2244	-14.6289271437123 
2245	-15.6004956384985 
2246	-17.380461953147 
2247	-22.8121511125728 
2248	-36.6617953078913 
2249	-37.6677408479554 
2250	-34.1924008430467 
2251	-28.3006398193775 
2252	-9.69535907180701 
2253	-2.80735661304416 
2254	-1.58159390578987 
2255	-2.25962010376412 
2256	-8.18699979063206 
2257	-12.1009882772411 
2258	-15.1207966367515 
2259	-13.2943133753773 
2260	-13.0781328932569 
2261	-9.20195834657429 
2262	-11.5839275981579 
2263	-14.7490173393887 
2264	-16.4574139406496 
2265	-21.1590186582105 
2266	-27.9999903557654 
2267	-35.2867730553774 
2268	-33.5475661226569 
2269	-41.528090482438 
2270	-43.1510412788536 
2271	-39.3637008819233 
2272	-42.9989140699017 
2273	-42.3493770083616 
2274	-35.5612816873819 
2275	-30.4019342543952 
2276	-27.8692749193559 
2277	-27.2013469457525 
2278	-27.3145841452252 
2279	-25.3985292150349 
2280	-24.0212250638709 
2281	-14.1715301065934 
2282	-12.3236091754127 
2283	-10.5055768508206 
2284	-4.83592814164481 
2285	 1.93367772071644 
2286	 6.89627247396319 
2287	 11.7915075133164 
2288	 17.8571555699762 
2289	 24.4119702466078 
2290	 25.4503725937393 
2291	 26.8303576079468 
2292	 29.2623746332233 
2293	 25.9233024067163 
2294	 22.5229151416438 
2295	 26.8668880296325 
2296	 22.099026136973 
2297	 8.27440438019283 
2298	 2.45457365773003 
2299	-9.79681268588264 
2300	-13.0880333373514 
2301	-5.92824348220831 
2302	-4.76174482739947 
2303	 2.3933628487397 
2304	 4.82219132318748 
2305	-2.02940013431167 
2306	-3.69147777220168 
2307	-2.48974030743396 
2308	-2.69904191838339 
2309	-0.377658670492789 
2310	-1.98483869251036 
2311	-4.45689432289086 
2312	-16.0486437684471 
2313	-22.9038435911987 
2314	-21.5517574928455 
2315	-26.4967588438614 
2316	-23.7374895923028 
2317	-27.9466534612634 
2318	-29.1184968667312 
2319	-16.6341320312235 
2320	-10.0916414258397 
2321	-0.585206200223944 
2322	 6.57980698921343 
2323	 6.57324720307544 
2324	 2.29597545407382 
2325	 6.06316476826688 
2326	 6.94871800484886 
2327	 11.3127073546454 
2328	 29.3411134587596 
2329	 30.1541169234679 
2330	 34.6646653697181 
2331	 34.1746957236004 
2332	 23.3543082509605 
2333	 24.6268813728289 
2334	 25.2138005511326 
2335	 22.1606926094815 
2336	 15.9011666197866 
2337	 5.89164533395352 
2338	-0.625799486002577 
2339	-1.39702976705809 
2340	-2.45483769504007 
2341	-5.2796202345446 
2342	-10.2783641259927 
2343	-9.50966770334 
2344	-5.83062105265614 
2345	 0.385409573689276 
2346	 12.2127668172706 
2347	 8.7684041293223 
2348	 6.50033060016183 
2349	 11.7902940445514 
2350	 0.318180405004588 
2351	 0.852958020832206 
2352	 10.3599107525325 
2353	 9.97235091338225 
2354	 19.7111549052928 
2355	 27.4165115752236 
2356	 17.928007628747 
2357	 10.3394024613829 
2358	 3.70516694843497 
2359	-5.26041256321076 
2360	 0.392349604455858 
2361	 6.25156189132994 
2362	 7.96209247725515 
2363	 17.4130048101341 
2364	 21.5798943200472 
2365	 22.5169155688418 
2366	 29.2221899614853 
2367	 36.0809439859161 
2368	 38.5620857646679 
2369	 29.20444717134 
2370	 22.7872128621977 
2371	 10.035542484184 
2372	-10.9624443021037 
2373	-12.3592245212071 
2374	-3.02951296505244 
2375	 10.8385961612295 
2376	 24.3631542039661 
2377	 27.2953246554199 
2378	 23.2027341392053 
2379	 23.9090717286252 
2380	 32.7015480501132 
2381	 45.5840685949028 
2382	 58.7622497890182 
2383	 60.9204953961632 
2384	 50.2114644898321 
2385	 39.5348127602777 
2386	 23.9391752020616 
2387	 9.08658760864946 
2388	 3.37328749073769 
2389	 0.402418284344234 
2390	 1.33454196795132 
2391	-5.6785495203525 
2392	-14.6029234055644 
2393	-22.4781333697732 
2394	-30.5696362242247 
2395	-26.5024142122964 
2396	-21.3143112978522 
2397	-19.6271633425313 
2398	-13.9668976004649 
2399	-9.08530019135083 
2400	-5.75900436169295 
2401	 0.389160719079943 
2402	 2.18805378493305 
2403	-6.08177176209764 
2404	-10.4242824973875 
2405	-13.8533683733487 
2406	-22.3372896089871 
2407	-13.024535572489 
2408	-12.38439624186 
2409	-19.892254021289 
2410	-23.7745435054645 
2411	-43.0049000082178 
2412	-44.741327842758 
2413	-44.853488336887 
2414	-35.6275967722978 
2415	-16.0775630742081 
2416	-14.1490008723622 
2417	-7.70345356147337 
2418	-7.38431360518885 
2419	-8.94882073378238 
2420	-8.35638925841824 
2421	 0.792655516155803 
2422	 10.4761878508044 
2423	 19.5548320742268 
2424	 33.3838342557086 
2425	 23.4826387057818 
2426	 19.1686417784055 
2427	 8.25362836450926 
2428	-14.2478510998005 
2429	-11.1889453836055 
2430	-10.9495809092182 
2431	-6.30096696931665 
2432	 7.7675883445181 
2433	 7.40429420211816 
2434	 3.55859642082717 
2435	-3.55095777479457 
2436	-12.242593677162 
2437	-12.0238741719764 
2438	-8.2454065490051 
2439	-1.29834335996872 
2440	 5.49802868650788 
2441	 14.2871832982705 
2442	 17.9892948930005 
2443	 12.573340510084 
2444	 3.19819528354458 
2445	-18.4346956270937 
2446	-34.3130273410523 
2447	-43.7486694234757 
2448	-34.2950479978835 
2449	-10.6679259675801 
2450	 4.96361329569836 
2451	 21.8036660673324 
2452	 22.225548194587 
2453	 14.0873183408946 
2454	 10.0891128824437 
2455	 12.5964106573583 
2456	 20.8074975883869 
2457	 23.4067317355551 
2458	 18.7746467413679 
2459	 4.64817491811352 
2460	-17.8647856953421 
2461	-40.9709399528614 
2462	-43.9099964814122 
2463	-40.2654010275358 
2464	-34.3681688894925 
2465	-8.81329204436422 
2466	 2.80284417792443 
2467	 22.1175823850899 
2468	 29.8404794685283 
2469	 23.7234625643954 
2470	 12.8906713250638 
2471	-10.7803569654953 
2472	-22.5788730302558 
2473	-17.6039024310554 
2474	-11.4803399159819 
2475	-3.98406466346505 
2476	-2.35594687657714 
2477	-6.37835956229069 
2478	-6.04525671847304 
2479	-4.17235652663268 
2480	 2.4215843383376 
2481	 6.91351390392057 
2482	 6.16864037536715 
2483	 11.5514544888989 
2484	 5.83853179614967 
2485	 3.60671711471348 
2486	 8.12359694522414 
2487	 6.83009127783346 
2488	 12.0895743853147 
2489	 8.48391724740788 
2490	-1.81851360788481 
2491	-11.0380003120189 
2492	-14.9376146006589 
2493	-16.2236220164287 
2494	-13.5641261263378 
2495	-8.02731461133861 
2496	-8.95437351901392 
2497	-2.3116354923847 
2498	 0.817676910278661 
2499	-1.14984961917615 
2500	 0.885281355707729 
