Wavelength	3mm_blackTPU00000.asd
350	 0.30793618715657 
351	 0.480027300140886 
352	 0.546092226372683 
353	-0.739453691426274 
354	-0.924023797698359 
355	-0.328643398315322 
356	 0.359787183308376 
357	 0.984526688231862 
358	 1.04906226025699 
359	 0.613009859847104 
360	 0.230031387086581 
361	 0.55138978935433 
362	 1.02706339198004 
363	 0.857630396197741 
364	-0.718355826652306 
365	-0.487452816065779 
366	 1.56591353451556 
367	 1.30886684484471 
368	 1.63073891277584 
369	 1.84563413415879 
370	 0.580761605161885 
371	-0.492808501939743 
372	-0.655137771602513 
373	-2.06824174986671E-02 
374	-0.20133502425951 
375	 0.445941344213813 
376	 1.09289636780245 
377	-9.14900172734614E-02 
378	-1.52372478496834 
379	-1.25817220686974 
380	 0.854576604642488 
381	-0.332458223530297 
382	-1.49598823752123 
383	-1.14963038222113 
384	 0.652246168794265 
385	 0.714273380714925 
386	-0.360515304385586 
387	-0.9563526481931 
388	 3.20543367621942E-02 
389	 0.650505285846991 
390	 0.133064882175245 
391	-0.471422412503408 
392	 0.564500837162905 
393	 1.83188496702637 
394	 0.897829289875063 
395	 0.201105901790584 
396	-0.507345722518894 
397	-1.15831738322908 
398	 0.195612975450385 
399	 1.42092425201435 
400	 1.77929856726112 
401	 1.54998811539468 
402	 0.576728427865417 
403	-0.804843207563225 
404	-1.9316412906123 
405	-1.16000746480539 
406	-0.542031541549584 
407	-0.755677912921277 
408	-0.199780271065006 
409	 0.294266177633079 
410	 0.221467319321109 
411	-0.602189746122303 
412	 7.26246918247896E-03 
413	 0.649285299399071 
414	 0.232296727461661 
415	-0.138826221204795 
416	-0.411092504702262 
417	-0.435707789131453 
418	-7.75790570818974E-04 
419	 0.261584403174225 
420	 1.08277549240553 
421	 2.75142835637642 
422	 0.697473615607857 
423	-0.262323593595915 
424	 1.63385219337497 
425	 1.59305015969939 
426	-0.328023759245978 
427	-2.14316539271031 
428	-0.776204252355189 
429	-0.323883229077218 
430	-0.108350060068858 
431	 0.730499029527738 
432	 0.206222604605812 
433	-8.09697286526022E-02 
434	 0.432896396932936 
435	 1.04834304631093 
436	 1.60962684487145E-02 
437	-1.10161204632197 
438	 4.71497567018465E-02 
439	-0.512282979753295 
440	-1.39782529760981 
441	-1.21633847454559 
442	-9.46166103442896E-02 
443	-0.521261587432854 
444	-1.6008304542972 
445	 0.706124079630226 
446	-0.124071550586381 
447	-2.2436848733113 
448	-1.99184231943484 
449	-1.11334539215525 
450	-0.189833740939617 
451	 0.25701826869674 
452	-0.570401901336358 
453	-1.05671132426861 
454	-0.845393028689414 
455	-0.395104599456677 
456	 0.912431247161266 
457	 1.18105012098124 
458	-0.777721663221189 
459	 0.248195401503793 
460	 0.457273302945766 
461	-1.53676008722552 
462	-2.30300784518003 
463	-1.60462150584886 
464	-0.243689301340297 
465	 0.180035858395739 
466	-0.141292350383884 
467	-0.922570750428177 
468	-1.63780795908068 
469	-1.02951512173504 
470	-0.403993137570043 
471	-0.378362413865002 
472	-0.529982163521257 
473	-0.234641229898114 
474	 7.39494135783305E-02 
475	-0.451915966206992 
476	-0.256209973478437 
477	 0.277778365577386 
478	 0.464961638877319 
479	-0.235224695371637 
480	-0.739128231051667 
481	-1.07739782519757 
482	-3.04621893554842 
483	-3.19209754873526 
484	-1.73511026237041 
485	-0.62887963826311 
486	-1.77347548150143 
487	-2.39573330716548 
488	-0.696945729562169 
489	-0.944102940842561 
490	-0.730797344762094 
491	 0.283355025625058 
492	-0.303603726293816 
493	-1.54390393185874 
494	-2.06243340221935 
495	-0.626455006050488 
496	-1.67326744225574 
497	-1.56284428929661 
498	 1.62784779730166 
499	-0.248954274378156 
500	-1.95041929203259 
501	-1.76604459812712 
502	-2.51067685989632 
503	-2.65386892225585 
504	-1.85754363089072 
505	-0.446689928204204 
506	-1.25087048868739 
507	-2.11980502427176 
508	-1.27103969343238 
509	-0.918552572301771 
510	-0.745575729320763 
511	-0.560935273818694 
512	-0.307683704902799 
513	-0.840018834338872 
514	-1.50284367922757 
515	-1.13264533768715 
516	-1.58254298902985 
517	-2.74483989540161 
518	-3.60512425671839 
519	-0.643498762084867 
520	 0.242437602441451 
521	-1.99599353028702 
522	-1.21458675982997 
523	-1.85771781104959 
524	-3.07327721873618 
525	-1.95452861034462 
526	-1.36864320003417 
527	-1.40969359295071 
528	-1.67890804863075 
529	-1.95725349566875 
530	-2.30786436379996 
531	-2.52396616689587 
532	-1.79874995047055 
533	-1.52667477995782 
534	-1.72587492429212 
535	-1.72127808919516 
536	-1.77518697790894 
537	-2.14927433683229 
538	-2.87646435183686 
539	-3.16943631656364 
540	-1.87070413087139 
541	 0.367076742836057 
542	-0.734256413695696 
543	-1.33474203207639 
544	-1.47223660034707 
545	-3.2456694898689 
546	-2.73669443346597 
547	-1.72574127546239 
548	-2.47674887774903 
549	-1.78281946200659 
550	-1.68372176946516 
551	-2.89513349228773 
552	-2.838718753092 
553	-1.30132898176382 
554	 0.154027922867671 
555	-1.60113291565539 
556	-2.66929852616235 
557	-2.11623037715002 
558	-0.468627633807652 
559	-2.09784971846206 
560	-2.93622470341546 
561	-0.997479044627435 
562	-1.18462147862881 
563	-2.35222530078302 
564	-3.38084300977635 
565	-2.87352504112671 
566	-2.61856726450946 
567	-2.61767321651653 
568	-2.26537529120124 
569	-0.976589538910919 
570	-0.503772184664509 
571	-1.62446405839046 
572	-1.33962264006723 
573	-1.64851906101275 
574	-2.67403188944694 
575	-2.30723600306484 
576	-1.2869619420258 
577	-0.446001963911066 
578	-0.69042680547964 
579	-1.76276977557449 
580	-1.84701860111821 
581	-0.216959043295505 
582	-1.08653238014689 
583	-1.95695421675431 
584	-1.40352396146599 
585	 0.81368409944171 
586	-0.548180236246741 
587	-3.89927546952631 
588	-3.99007226738273 
589	-2.66640734831808 
590	-1.29838072583935 
591	-0.916926969046117 
592	-0.797436844693112 
593	-1.66487442459176 
594	-2.96233778384691 
595	-1.14771722744024 
596	-0.023917037744953 
597	-0.445152539685206 
598	-1.44103959099978 
599	-2.04913288475555 
600	-2.55969668540571 
601	-3.40600215404823 
602	-3.27746979895362 
603	-3.24360090817873 
604	-3.57152510250151 
605	-1.89162169126048 
606	-0.918386699838248 
607	-1.23851072402563 
608	-1.61488486354245 
609	-2.4953156101094 
610	-2.98514714047205 
611	-2.08657657018545 
612	-1.74822354829617 
613	-1.76092269504678 
614	-1.88380424271006 
615	-2.8777619656224 
616	-3.07201559180316 
617	-2.27028881863815 
618	-2.02981798606832 
619	-2.55390007431662 
620	-3.03901581173725 
621	-2.37192212740943 
622	-3.31162684518973 
623	-4.00958174175641 
624	-2.80152974573885 
625	-1.64755940515298 
626	-1.4680211860227 
627	-2.23785649761527 
628	-2.54895021762851 
629	-2.16823647041186 
630	-1.75717288592534 
631	-2.51863782537817 
632	-2.29289646309182 
633	-1.78150146695794 
634	-1.95556467449176 
635	-1.68199983733282 
636	-1.14910017983603 
637	-1.01453734890217 
638	-3.28015112972573 
639	-3.31792249304856 
640	-1.52095813616823 
641	-1.96747269462566 
642	-1.53186070775092 
643	-0.762354984943078 
644	-1.01480123614753 
645	-2.20403570511618 
646	-2.96222668550663 
647	-2.59888946508349 
648	-2.29355823005857 
649	-2.15584814997284 
650	-2.09412712803598 
651	-1.7464566929527 
652	-2.23398796771403 
653	-2.73963308238876 
654	-2.11889755526774 
655	-3.52562086437642 
656	-4.31697695354669 
657	-2.80989683111748 
658	-2.72655894072607 
659	-2.68361073836859 
660	-2.20262145100749 
661	-1.89338099686801 
662	-2.2578310314136 
663	-2.57436503945141 
664	-1.60323447458003 
665	 0.129254419564495 
666	 0.826960734447679 
667	-0.739674012806548 
668	-3.21847832119092 
669	-4.16796685668677 
670	-3.14902094190634 
671	-3.06378306961576 
672	-1.00279181250117 
673	 0.882747106882348 
674	-1.97618385995996 
675	-2.31209705142365 
676	-1.68920668229969 
677	-2.6962499483178 
678	-2.83446812332267 
679	-2.74411595473138 
680	-2.79199132538023 
681	-2.50024702775263 
682	-1.88670148770933 
683	-1.92519578295886 
684	-4.23828968359752 
685	-3.8401529148617 
686	-2.24102958595575 
687	-2.12848323546073 
688	-1.58210715917543 
689	-1.65249946645067 
690	-2.73414831493966 
691	-3.40759633401583 
692	-3.13764882867635 
693	-2.35437594183214 
694	-2.41463798140314 
695	-1.49568418055257 
696	-0.799428383931355 
697	-2.01762985778661 
698	-3.36293071282295 
699	-3.86828834837745 
700	-3.01014584035061 
701	-0.738493361060792 
702	 0.780294462535585 
703	 0.469135200317728 
704	-1.85314024056254 
705	-2.57367939008043 
706	-1.86362254342994 
707	-1.38289805427082 
708	-2.41386133670651 
709	-2.15429292700415 
710	 0.40811794822792 
711	-0.607508443817423 
712	-1.71774593346595 
713	-1.9073393685525 
714	-2.91321649578246 
715	-2.59795066938301 
716	-1.50470815740666 
717	-1.05387098788598 
718	 0.340382968183851 
719	-4.40274357503234E-02 
720	-3.26480163705481 
721	-3.30297607922615 
722	-2.44670602288306 
723	-1.9984891410421 
724	-2.08929797695114 
725	-2.86898235220838 
726	-3.55291165771829 
727	-3.06931991595135 
728	-2.56939612255002 
729	-2.39376942656099 
730	-2.3887303367234 
731	-0.921794403465902 
732	-0.886287765185776 
733	-2.43849528037343 
734	-1.86748663053588 
735	-3.44369778228204 
736	-5.03982542404532 
737	-2.38230604948159 
738	-1.13991851860338 
739	-0.925526546316117 
740	-0.796606068701522 
741	-1.56738828501271 
742	-3.10079265503146 
743	-4.41746917287148 
744	-3.14775467091188 
745	-2.63616472409519 
746	-2.33634985914931 
747	-0.394990822919342 
748	-0.305699656272405 
749	-1.761344179565 
750	-3.43688772123874 
751	-2.76730531194408 
752	-2.14900035032985 
753	-2.39310729788345 
754	-2.28725977883163 
755	-1.53525076985528 
756	-1.04028304702124 
757	-2.03961535840913 
758	-2.4363445175288 
759	-2.82104731929941 
760	-3.64607098581275 
761	-3.55327766916786 
762	-3.07300098654453 
763	-2.92695424963215 
764	-4.25082406663155 
765	-3.74681035486927 
766	-2.56700182501051 
767	-3.16053490177641 
768	-2.15239481421686 
769	-1.62688309306952 
770	-2.70214443115616 
771	-1.48500972493909 
772	-1.07404735731471 
773	-1.80616906700119 
774	-1.20190674243473 
775	-1.17550714556334 
776	-2.16063393190474 
777	-3.70225707958036 
778	-2.33207587950676 
779	-0.982255005877394 
780	-1.60590267034359 
781	-2.18852584721893 
782	-2.20135834884159 
783	-2.19004504294977 
784	-3.67784154362202 
785	-2.17265010748016 
786	-0.645467847215817 
787	-2.73362684326694 
788	-2.56537914887597 
789	-1.58711726573009 
790	-1.29688943932284 
791	-2.43349099349221 
792	-2.9725539556832 
793	-2.39682264650115 
794	-1.24204669645895 
795	-2.51277825515642 
796	-3.82822901990472 
797	-2.72349474978089 
798	-1.96394096386187 
799	-2.36847229330309 
800	-3.50802010079525 
801	-3.09917714361288 
802	-2.00142837898799 
803	-1.37327735345247 
804	-2.36748008623047 
805	-2.17801658944687 
806	-1.68041408280458 
807	-1.96466455823765 
808	-3.03020711814544 
809	-3.13925724090258 
810	-2.00368216506707 
811	-0.861320952783309 
812	-1.02099056871879 
813	-1.61571037471943 
814	-1.25727784317712 
815	-1.23710780034557 
816	-0.857273622896345 
817	-0.382139296118583 
818	-3.19619054067392 
819	-3.58654500940877 
820	-1.61979359990318 
821	-1.23551434964685 
822	-1.77965827672063 
823	-2.26227607997441 
824	-1.9391057053389 
825	-1.88308103264714 
826	-1.82073794909202 
827	-1.68770974893718 
828	-1.83382985752804 
829	-1.39342255942256 
830	-0.859920874454273 
831	-1.30651857338565 
832	-3.57306141162294 
833	-4.58255283273285 
834	-2.85415936598861 
835	-2.16269817854501 
836	-2.09520688542009 
837	-2.06654181628084 
838	-1.26465831904975 
839	-1.72756543910874 
840	-2.12849033483646 
841	-1.25566424699424 
842	-2.80775224711083 
843	-3.95027524176896 
844	-3.40505823725334 
845	-2.56280378982254 
846	-1.76583900245743 
847	-1.19838108628522 
848	-0.860696937771863 
849	-0.157330137810143 
850	-0.929075936690281 
851	-3.34778001719319 
852	-2.49542378341635 
853	-1.73050836691052 
854	-1.77194628342824 
855	-1.5093396518449 
856	-0.745375439340337 
857	-1.56847342151577 
858	-4.7579262901788 
859	-3.5457884899289 
860	-2.46040511607321 
861	-2.96227794165315 
862	-2.21929065208532 
863	-2.09685144599141 
864	-2.65222697238069 
865	-3.26945545666612 
866	-3.11720341374522 
867	-2.44850914952265 
868	-1.63417690493932 
869	-0.853535591145542 
870	-1.94596015841189 
871	-3.71545370257665 
872	-3.47583799222131 
873	-2.73044772146069 
874	-2.36849685697829 
875	-2.59003345419518 
876	-1.68398665100865 
877	-2.3412699079599 
878	-3.63344816698474 
879	-1.83361993472051 
880	-1.60757349941055 
881	-1.90900207831714 
882	-1.21296828193707 
883	-1.63299374787816 
884	-2.25269331183524 
885	-2.39741100795371 
886	-1.73347479397828 
887	-0.803861960967138 
888	-0.654610085511153 
889	-1.99274679133916 
890	-3.01350343007791 
891	-3.04210760034979 
892	-2.22574378492781 
893	-1.85154336959698 
894	-1.19328064060395 
895	-0.736988511713794 
896	-1.18471849638213 
897	-1.31515208187572 
898	-1.46582305785002 
899	-1.89724889619667 
900	-2.51456140836208 
901	-2.29407863258522 
902	-1.55035552939175 
903	-1.25510602593085 
904	-1.31856472392279 
905	-1.85918446787513 
906	-2.41846032078278 
907	-0.839454593163973 
908	-0.654223868869829 
909	-1.88174297939053 
910	-2.40842675900403 
911	-0.97997219593853 
912	-0.696061884602075 
913	-3.04268840848018 
914	-3.37185441121276 
915	-2.54859059129605 
916	-1.69015913816462 
917	-2.12157740629705 
918	-3.04589986487621 
919	-3.55053066920021 
920	-3.07068788379521 
921	-1.89506997537362 
922	-1.65464917752829 
923	-2.08089958711407 
924	-1.54075920482953 
925	-0.988647066227732 
926	-1.11454744755194 
927	-2.03275441950985 
928	-2.4040761259898 
929	-1.94741951895431 
930	-1.22046591869056 
931	-1.35593284751732 
932	-0.960802557795259 
933	-1.26972317043774 
934	-2.95884203427081 
935	-3.83506821351392 
936	-2.96912618987265 
937	-1.84337995408319 
938	-3.37273811796099 
939	-2.49932609427932 
940	-1.35089100993188 
941	-1.97121991760465 
942	-2.65400909698294 
943	-2.33935569030812 
944	-1.72334133394007 
945	-2.54549263820344 
946	-3.46709081316348 
947	-3.34150049882724 
948	-2.00250703696843 
949	-1.47759048726073 
950	-1.51286940273034 
951	-1.69662030695839 
952	-1.5739923157386 
953	-2.16804611065464 
954	-2.30464108235554 
955	-1.71953509403361 
956	-2.74584231407945 
957	-3.55167406932282 
958	-2.86119500233748 
959	-0.454625505311543 
960	-2.48307565294277 
961	-3.5249155900437 
962	-1.53554874780206 
963	-1.68994586189461 
964	-2.32634307246702 
965	-2.74988375860725 
966	 2.26497151516015 
967	 1.19576835029466 
968	 1.53000013845868 
969	 0.214114293652205 
970	-5.2315360435379 
971	-5.28853775996764 
972	-2.01739987134799 
973	-1.67379825762707 
974	-7.90107205797869E-02 
975	 1.69975588021871 
976	 2.66161698545622 
977	 2.62440637071689 
978	 1.88259162789027 
979	-0.208430416613601 
980	-2.51593109181945 
981	-2.11757935730659 
982	 2.37838992046154 
983	 3.16193850700872 
984	 0.121344656198031 
985	-1.27818511326714 
986	-2.20166886988464 
987	-4.08180764059637 
988	-4.20015137592053 
989	-3.20763256791167 
990	-2.10303453540302 
991	 2.13176771721407 
992	 3.31622708173496 
993	 3.86853318694427 
994	 3.05861827862669 
995	 2.98640593249305 
996	-1.47151147079086 
997	-3.64311224146175 
998	-1.70753425262006 
999	-3.55416611909499 
1000	-4.61334606772252 
1001	-2.12580011061573 
1002	 0.498260369542027 
1003	 1.9479831415366 
1004	 4.16026229032435 
1005	 4.92556374949264 
1006	 3.17277688075349 
1007	 0.836567425562604 
1008	-2.57834142213394 
1009	-4.75897680224973 
1010	-5.65059947109213 
1011	-4.80725100510245 
1012	-1.7478518944579 
1013	 4.22741158558232 
1014	 4.48808260488203 
1015	 3.33402988417949 
1016	 4.52833989477667 
1017	 1.49716259141297 
1018	-2.02026751545599 
1019	-2.81673958456029 
1020	-1.27650705637872 
1021	 0.288557529754299 
1022	 4.10942994110364 
1023	 6.31573713993467 
1024	 10.0828389442339 
1025	 6.81038773852183 
1026	 3.71398923744885 
1027	 2.49540112394098 
1028	-1.05011792927619 
1029	-1.77152822915701 
1030	-0.62414820043954 
1031	-1.54214858789159 
1032	-1.51784055233322 
1033	 1.99599750716396 
1034	 2.79170787833287 
1035	-0.726458185598969 
1036	 0.532038232754013 
1037	 1.29857078731711 
1038	-1.4075466454063 
1039	-0.441620053582269 
1040	 0.542135714441544 
1041	-0.518567463003856 
1042	-0.931745452334689 
1043	 0.219720808109358 
1044	 3.87850274383792 
1045	 1.8502744905396 
1046	-2.1446533834374 
1047	-3.04027538848356 
1048	-6.69173798349744 
1049	-7.39301815636079 
1050	-3.17483150964204 
1051	 0.201598686194387 
1052	 1.89930626946596 
1053	-0.45082562290188 
1054	-1.56441006558858 
1055	-3.59993896275477 
1056	-7.45129135314465 
1057	-7.05756181685007 
1058	-2.37620512098979 
1059	-0.948775650070257 
1060	 2.90835477380648 
1061	 4.21231761846504 
1062	 3.78556564175657 
1063	 0.758818246134276 
1064	-1.0637902877796 
1065	-1.17052638746299 
1066	-0.882273843716755 
1067	 1.04820936589557 
1068	 4.45974866758413 
1069	 7.62339314860217 
1070	 8.3356415402347 
1071	 9.44702965102383 
1072	 11.2458684140429 
1073	 10.6517929106092 
1074	 11.033270652312 
1075	 13.8411757704929 
1076	 12.5765011201372 
1077	 7.87419589278655 
1078	 6.12794502776528 
1079	 3.30262461784195 
1080	 2.11441566632723 
1081	 3.71890534080041 
1082	 3.59665935159447 
1083	 3.05879173650962 
1084	 1.81952452010857 
1085	 1.05671597455733 
1086	 2.99833636249652 
1087	 3.51315125658224 
1088	 3.95079953968544 
1089	 4.94176621266121 
1090	 3.04160850608182 
1091	 2.56934501464747 
1092	 3.07129516458099 
1093	 2.26727442900795 
1094	 0.852181811224066 
1095	-0.683768379572977 
1096	-3.93877788265498 
1097	-5.28911408877641 
1098	-6.03123587010632 
1099	-6.11252115905242 
1100	-4.21757540656442 
1101	-3.64360926167004 
1102	-3.65675103791022 
1103	-3.23879224861087 
1104	-1.99163345093335 
1105	-3.24537132023314 
1106	-3.25875088245504 
1107	-1.88652782962414 
1108	-1.89939830025931 
1109	-4.97414199549713E-02 
1110	 0.376585622647747 
1111	-0.744703050688664 
1112	 1.24125234036134 
1113	 5.84021991311521 
1114	 6.5064480399787 
1115	 6.98088012791771 
1116	 7.90186438899493 
1117	 5.08163366021929 
1118	 5.27075601964806 
1119	 11.6447654835102 
1120	 11.7197757788046 
1121	 7.58146327247141 
1122	 5.1997957490868 
1123	-1.62855503213463 
1124	-4.60294640490052 
1125	-5.06408472863395 
1126	-3.50827241231454 
1127	-2.45054307295904 
1128	 0.659875221904236 
1129	 1.05779392151636 
1130	 0.902752854983986 
1131	 7.28369197532862E-02 
1132	-2.79026840296415 
1133	-3.48716315232779 
1134	-4.02043597925941 
1135	-3.64721192499068 
1136	-1.79538185231245 
1137	-0.553409963265382 
1138	 2.20376670690213 
1139	 2.34106822126248 
1140	-0.034579903038187 
1141	-0.324818726580335 
1142	-1.34136956578963 
1143	-1.65827516225779 
1144	 2.20299379891907 
1145	 1.95888692308132 
1146	-3.13381656496096 
1147	-4.93594271471216 
1148	-6.24298568958733 
1149	-9.85396363968707 
1150	-7.71587660681671 
1151	 0.312933532431389 
1152	 2.99015594310918 
1153	 7.19168824771447 
1154	 7.07551250138076 
1155	 1.66766297422905 
1156	 0.060265302473493 
1157	-2.66233793884021 
1158	-2.95382257957554 
1159	 1.06362469629836 
1160	 0.853712355052223 
1161	-1.44226923136467 
1162	-2.10764977634451 
1163	-4.7150376476229 
1164	-5.59176313444092 
1165	-2.93553842752381 
1166	-2.45527866468909 
1167	-3.9581792173414 
1168	-3.96329505954211 
1169	-2.49142714211862 
1170	-2.91262740735541 
1171	-2.16937625735755 
1172	 0.449450591166391 
1173	 0.488129666386963 
1174	-1.0325340526857 
1175	-1.4870501351844 
1176	-3.07671347676135 
1177	-2.89824539823092 
1178	-1.91028364756796 
1179	-0.219553915102015 
1180	 4.05307925363839 
1181	 5.52692778488562 
1182	 6.49343570287326 
1183	 6.52721302899939 
1184	 3.88639298783819 
1185	 2.59709014375778 
1186	 0.573968594674099 
1187	 0.757378822129622 
1188	 3.07542306202217 
1189	 4.37857035486446 
1190	 7.31075355112375 
1191	 9.47792716257205 
1192	 8.85721544553362 
1193	 4.07054265243204 
1194	 2.09295758663949 
1195	 1.61547509361493E-02 
1196	-1.51152614865598 
1197	-0.468044875177573 
1198	-1.33688375816388 
1199	-4.35756177811834 
1200	-5.08645906678242 
1201	-4.71270751897995 
1202	-5.34690654150962 
1203	-6.49890577458709 
1204	-5.22388591713938 
1205	-3.48652285915207 
1206	-1.34435772225042 
1207	 4.48035165713479 
1208	 6.6698601766011 
1209	 6.77390939697011 
1210	 7.26379114070754 
1211	 6.47803315345859 
1212	 6.06849881875076 
1213	 4.63198066666988 
1214	 5.43393683358195 
1215	 6.09169519917797 
1216	 5.65141345445247 
1217	 9.87540913484715 
1218	 10.3854453359216 
1219	 7.32086999640159 
1220	 8.31301437467134 
1221	 8.3841681752225 
1222	 6.68125360057032 
1223	 6.59668990960934 
1224	 9.8830257346546 
1225	 8.67431939612105 
1226	 4.15941708471707 
1227	 2.20978200021567 
1228	-1.09653162901536 
1229	-2.14417043475532 
1230	-0.543709005183817 
1231	 0.19286471775879 
1232	 1.55909718738913 
1233	 2.64380082058055 
1234	 4.42595838520816 
1235	 4.53020116802877 
1236	 4.14495979092301 
1237	 2.53454973143166 
1238	-1.33688310607927 
1239	-2.27320882635699 
1240	 0.492392271588455 
1241	 1.60445865781895 
1242	 2.63704098031669 
1243	 3.77771105798558 
1244	 1.44837852094459 
1245	-1.21767768935776 
1246	-2.39368936785159 
1247	-4.17810327187855 
1248	-3.67370308305847 
1249	-3.29913272295534 
1250	-2.5044875956644 
1251	 0.432404974156717 
1252	 1.14028472038991 
1253	 1.22360476112645 
1254	 0.560223421669391 
1255	-2.84017626257011 
1256	-3.7629385281772 
1257	-4.98346106770465 
1258	-4.44765730210811 
1259	 0.421043638170701 
1260	 2.41707913772421 
1261	 2.88609215878886 
1262	 5.19395531746328 
1263	 6.73804255736287 
1264	 3.58912084539578 
1265	 4.32600114215829 
1266	 4.2790601644776 
1267	 4.10650575082854 
1268	 5.55981714097638 
1269	 6.17302164945267 
1270	 8.26855746505765 
1271	 6.66403622890021 
1272	 4.31196954635077 
1273	 3.45964252197801 
1274	-0.518843011596576 
1275	-1.14757032535124 
1276	 0.905458339540048 
1277	-1.63255635503235 
1278	-3.45557792518465 
1279	-3.23275494800326 
1280	-3.79427351733338 
1281	-2.85034868013103 
1282	 2.25007808820359 
1283	 4.7430052035973 
1284	 6.58840879686139 
1285	 8.67403415200472 
1286	 11.1375431462463 
1287	 11.5057586742519 
1288	 11.2490417110112 
1289	 8.52993462552691 
1290	 6.10809460355759 
1291	 5.61139266960463 
1292	 5.65899331203394 
1293	 7.51552590631634 
1294	 8.18240471971274 
1295	 7.67581159307409 
1296	 6.34908257801237 
1297	 2.90974161406738 
1298	 0.723058419538079 
1299	-0.462797623787378 
1300	-0.298410681729688 
1301	-1.97290757906343E-02 
1302	 0.398901727763589 
1303	 0.59916488946568 
1304	 0.486920237467548 
1305	 3.87072318976378 
1306	 6.30548095963083 
1307	 6.31778734994811 
1308	 4.99425930130006 
1309	 1.16450563401647 
1310	-0.792087816252099 
1311	-7.37192351904602E-02 
1312	-0.745695316805293 
1313	-0.918783902197823 
1314	-9.43746697800091E-03 
1315	 0.308724414079372 
1316	 1.24510644299667 
1317	 3.97147163775688 
1318	 4.63939504145371 
1319	 4.61036788455829 
1320	 4.34036797784893 
1321	 3.24452497670161 
1322	 3.09298545383811 
1323	 1.86785974661026 
1324	 2.33318346844869 
1325	 2.18661112349549 
1326	 4.58799458319035 
1327	 7.85169969797333 
1328	 6.92173994766402 
1329	 7.85402821531968 
1330	 7.32590049646029 
1331	 7.05735077076683 
1332	 9.65634923996944 
1333	 9.33890304668256 
1334	 9.99537356265943 
1335	 10.9753103872429 
1336	 9.78291376795711 
1337	 10.1020321261835 
1338	 9.10857020868599 
1339	 8.91161691005315 
1340	 10.2428910570408 
1341	 9.47192791614516 
1342	 10.1349369138515 
1343	 8.55430341630716 
1344	 5.9957545463742 
1345	 6.02986486217952 
1346	 6.06514520557252 
1347	 5.77634814731008 
1348	 6.1987581104837 
1349	 5.54711395300633 
1350	 3.3595780056807 
1351	 2.81055974040561 
1352	 4.78100749397406 
1353	 6.683071550374 
1354	 9.03775314328194 
1355	 9.30539018804536 
1356	 10.1887179508458 
1357	 7.33263345259661 
1358	 6.73291959996931 
1359	 10.3061354512071 
1360	 11.8385657413603 
1361	 11.7294287517065 
1362	 14.3610032342718 
1363	 12.7036109653836 
1364	 9.17986630680118 
1365	 9.90030040540018 
1366	 6.29327034268462 
1367	 0.587610792127552 
1368	 0.830813138012768 
1369	 1.99768523756347 
1370	 3.07775760353387 
1371	 7.15211248066786 
1372	 9.3346898984894 
1373	 11.4469388464574 
1374	 11.9595596187165 
1375	 10.513547253236 
1376	 9.9442376456247 
1377	 7.40099290594674 
1378	 9.0442998682175 
1379	 11.1016789119089 
1380	 9.78240430036875 
1381	 12.0524235327292 
1382	 12.8772556430673 
1383	 10.5977569286585 
1384	 10.6600439687224 
1385	 10.1793498482653 
1386	 8.08376777964574 
1387	 7.70683709374984 
1388	 8.07121940435473 
1389	 10.4965202758674 
1390	 11.0668414704204 
1391	 11.0882179947652 
1392	 9.18978735002455 
1393	 3.76261435314059 
1394	 1.41409346769677 
1395	-1.55918268356109 
1396	 9.36300390257084E-02 
1397	 4.46788389806891 
1398	 8.32349845710684 
1399	 7.79847758316494 
1400	 7.77937239735679 
1401	 6.69733526861137 
1402	 2.41968631801621 
1403	 2.25449885570327 
1404	 4.71134977561246 
1405	 6.06599621088544 
1406	 10.5666920720732 
1407	 13.5493117640618 
1408	 11.4983283170487 
1409	 12.4499549412922 
1410	 12.9828939290473 
1411	 11.6260985413178 
1412	 11.0580928364873 
1413	 7.83708281577234 
1414	 6.58869905161212 
1415	 7.4292617134069 
1416	 9.00714467748426 
1417	 11.3192391557121 
1418	 11.7796980576244 
1419	 11.0560470305861 
1420	 12.3878367805244 
1421	 15.063674214718 
1422	 14.2317223224335 
1423	 15.1912316577738 
1424	 14.8703836558306 
1425	 10.747015475955 
1426	 8.89899539180565 
1427	 7.48419473905043 
1428	 8.11177653532289 
1429	 7.86549629112271 
1430	 8.74090229577408 
1431	 10.9863909841837 
1432	 8.85245972776786 
1433	 9.62335563720901 
1434	 9.1721493719262 
1435	 5.6641059795912 
1436	 6.33966019449681 
1437	 7.59874149250451 
1438	 8.42793025452735 
1439	 9.02673442651588 
1440	 8.38246583375679 
1441	 6.65413843716647 
1442	 8.00292516482709 
1443	 12.7309404518742 
1444	 16.5188303507814 
1445	 17.954929563338 
1446	 18.1797864650892 
1447	 17.00893053064 
1448	 11.7611000541642 
1449	 9.83369326344608 
1450	 9.63590689218529 
1451	 9.40367533522115 
1452	 9.73357684883102 
1453	 10.1526345969284 
1454	 12.3867605895185 
1455	 14.5032859351871 
1456	 13.4570123714298 
1457	 12.2247095126646 
1458	 10.0769819032653 
1459	 6.07344828212344 
1460	 4.30750294933441 
1461	 6.02373724885151 
1462	 6.09232899752209 
1463	 5.13742224988652 
1464	 6.24851443023356 
1465	 6.44604784184223 
1466	 7.1882854457944 
1467	 9.61528349528986 
1468	 12.5335681826422 
1469	 14.578235767211 
1470	 14.9723442286445 
1471	 15.1406290303866 
1472	 15.1877044258365 
1473	 13.7874598891887 
1474	 11.3830447911705 
1475	 11.3504297286954 
1476	 10.9353857483453 
1477	 9.99867515917131 
1478	 10.9837431077821 
1479	 9.40072041709114 
1480	 6.01820902601252 
1481	 5.0081147465623 
1482	 6.56949264908332 
1483	 7.63010106305071 
1484	 9.68645065648136 
1485	 13.9492798341023 
1486	 16.3028923134676 
1487	 16.3220178807698 
1488	 15.2492201969083 
1489	 11.0137442899199 
1490	 5.599103145573 
1491	 3.50933106381244 
1492	 2.15783086138682 
1493	 0.441480459191547 
1494	 0.400997483814041 
1495	 1.12488587216201 
1496	 2.70643135053895 
1497	 6.36290929594 
1498	 9.19055470180687 
1499	 10.8679002623766 
1500	 12.0591817850579 
1501	 12.243672735694 
1502	 10.9653198549521 
1503	 7.66176064122924 
1504	 8.80529311417495 
1505	 12.3129360369291 
1506	 14.0915961352564 
1507	 16.7335533692288 
1508	 14.925618801736 
1509	 9.00743667616778 
1510	 6.88677441538478 
1511	 8.47822398529091 
1512	 8.88824418489972 
1513	 9.69376087430891 
1514	 12.5854330942736 
1515	 12.3784760898956 
1516	 9.00976966866705 
1517	 8.0686669980006 
1518	 5.68700063818918 
1519	 2.05826582934797 
1520	 4.59631273614274 
1521	 9.2572105676126 
1522	 12.7441811662815 
1523	 16.1179636485459 
1524	 19.0508123819438 
1525	 20.1176834958213 
1526	 19.3765505938171 
1527	 18.8898982528411 
1528	 17.7372245689554 
1529	 16.0021721217987 
1530	 14.0835819701475 
1531	 11.5302188401803 
1532	 8.97224517835389 
1533	 6.88122907548646 
1534	 6.60034287002517 
1535	 8.0953288287782 
1536	 10.7509518545523 
1537	 14.2434149228209 
1538	 15.8623795617637 
1539	 15.8843012063815 
1540	 18.9200102824541 
1541	 21.1452018373893 
1542	 18.7331465616517 
1543	 15.725742245227 
1544	 12.3103902461596 
1545	 8.88541228637882 
1546	 8.12019067850866 
1547	 10.2809049931342 
1548	 11.9169059599454 
1549	 11.2948842049634 
1550	 10.567854684709 
1551	 12.9871141947768 
1552	 15.4703806835505 
1553	 15.2048196471944 
1554	 16.260420296717 
1555	 16.2052696598927 
1556	 14.1611896280573 
1557	 13.9693408199353 
1558	 14.7109443814863 
1559	 15.0197092413085 
1560	 15.3134409013469 
1561	 14.5214435590796 
1562	 12.6520089027231 
1563	 10.9785436815595 
1564	 10.4063928271965 
1565	 11.0958331720713 
1566	 9.79272077404107 
1567	 10.7185087916074 
1568	 13.627268960661 
1569	 12.6536301473379 
1570	 13.4784945279139 
1571	 13.1871674154258 
1572	 9.2677416547165 
1573	 6.87408760334021 
1574	 5.69221234494175 
1575	 5.60767783372702 
1576	 5.73816440129991 
1577	 6.58929651068931 
1578	 7.16677244566557 
1579	 6.46982532171352 
1580	 5.98914431472757 
1581	 5.37878615540623 
1582	 5.62624559498426 
1583	 7.60346266949867 
1584	 9.93447131718907 
1585	 10.089838741032 
1586	 10.8142015136085 
1587	 9.9097529598394 
1588	 6.62783817843724 
1589	 7.93483363308166 
1590	 8.49514817870165 
1591	 9.93941941277862 
1592	 14.2896204108658 
1593	 15.699707719464 
1594	 16.537465731432 
1595	 16.4293316853454 
1596	 16.9010327586125 
1597	 16.5226095409128 
1598	 16.1662275055986 
1599	 16.9451380271526 
1600	 12.3656104447568 
1601	 10.724588148255 
1602	 13.5664739217261 
1603	 12.3092614705412 
1604	 12.7953149121099 
1605	 14.5491799414252 
1606	 11.5121913342848 
1607	 11.330979543319 
1608	 12.7552471381728 
1609	 12.3892566189899 
1610	 14.3283729208878 
1611	 14.3811640473802 
1612	 13.3673253799386 
1613	 11.7973106848937 
1614	 9.06488781099666 
1615	 7.73122505951665 
1616	 7.08880300065746 
1617	 7.48070577112028 
1618	 7.9324593722524 
1619	 6.35965360526049 
1620	 4.9746585501729 
1621	 4.82312271910794 
1622	 3.43418440641176 
1623	 3.11422295029762 
1624	 3.84276291584984 
1625	 4.00122211570003 
1626	 3.64593048088112 
1627	 1.81517256569911 
1628	 2.41857896040034 
1629	 3.41886818746559 
1630	 4.37959527969954 
1631	 8.99787489295988 
1632	 11.0450514341426 
1633	 10.441118858593 
1634	 9.45880054755871 
1635	 9.93049739673966 
1636	 10.8974904754842 
1637	 11.1226601916235 
1638	 11.6069197572823 
1639	 12.5525544511539 
1640	 12.6090359910514 
1641	 13.4274556422228 
1642	 16.9741916276332 
1643	 18.0317003184917 
1644	 17.3447011656583 
1645	 17.5932017348816 
1646	 17.0924087598222 
1647	 16.4025068526718 
1648	 16.5749158218402 
1649	 15.171744980359 
1650	 11.0717953242616 
1651	 10.5013573352062 
1652	 10.7469681773114 
1653	 11.6676120766188 
1654	 16.420433558039 
1655	 17.3745898816163 
1656	 16.6821281694658 
1657	 16.2323194113698 
1658	 14.1031472367972 
1659	 12.5587426687947 
1660	 11.0600831063917 
1661	 9.65763299697874 
1662	 7.7929526637659 
1663	 6.96065104093374 
1664	 6.4945568866215 
1665	 7.1483923732434 
1666	 9.22406051778277 
1667	 10.1232808442405 
1668	 11.6193379952253 
1669	 11.6735850290567 
1670	 10.6888687163363 
1671	 9.85617490042446 
1672	 8.31378142942814 
1673	 7.83791164736234 
1674	 7.95062651286803 
1675	 6.29514061393189 
1676	 3.64230688053177 
1677	 3.01817933380136 
1678	 2.23662499945314 
1679	 1.63929686017392 
1680	 2.5305828424897 
1681	 3.77698121415337 
1682	 4.41056725574053 
1683	 5.37303132905779 
1684	 8.20309278198135 
1685	 11.9471285467599 
1686	 10.4711191559098 
1687	 7.37347397903511 
1688	 6.5330484677723 
1689	 4.10979713545651 
1690	 3.02328130108719 
1691	 4.72813653996901 
1692	 6.47938944307476 
1693	 8.54753513473915 
1694	 10.0582925825756 
1695	 13.9168347922057 
1696	 14.6151375458219 
1697	 11.1263752369634 
1698	 10.4946335663391 
1699	 9.81507573366849 
1700	 9.3551391530452 
1701	 10.5256247140733 
1702	 11.7008301752585 
1703	 14.0632311673081 
1704	 13.2263077787978 
1705	 11.689057910714 
1706	 9.28154214091247 
1707	 2.32818064352499 
1708	-0.828011246264038 
1709	-2.99241541649225 
1710	-2.7407868428189 
1711	 0.593476477997274 
1712	 1.96956178182664 
1713	 4.84801168769389 
1714	 6.13309906329221 
1715	 5.58844291105727 
1716	 5.76060757292239 
1717	 6.02800988414434 
1718	 6.40927683310171 
1719	 6.53964121989722 
1720	 6.68138965966512 
1721	 7.72142630455514 
1722	 6.59359304663442 
1723	 2.98413691364116 
1724	 4.34608446225214 
1725	 6.87943552461069 
1726	 10.3180150113799 
1727	 14.6652248789612 
1728	 12.1724592483898 
1729	 10.0177744563565 
1730	 11.1819216658143 
1731	 9.19623601663711 
1732	 12.0958499895992 
1733	 11.8876490172878 
1734	 8.20020204012761 
1735	 6.23182291324118 
1736	 2.68408627536718 
1737	 1.39320790004156 
1738	 2.63435765438062 
1739	 2.86442479812258 
1740	 4.00124723260354 
1741	 4.26520416586258 
1742	 3.6818020574735 
1743	 3.45964870603545 
1744	 2.28297580745388 
1745	 3.03286636364948 
1746	 5.69325367236614 
1747	 6.47009514862639 
1748	 7.40014280568276 
1749	 8.66670555105572 
1750	 8.84014416843837 
1751	 8.61105538356332 
1752	 9.61299590522352 
1753	 8.60041796713788 
1754	 4.92744552873235 
1755	 2.89621226996407 
1756	 28.8638358584971 
1757	 32.7118026290501 
1758	 36.0278369312216 
1759	 29.8278515711071 
1760	 1.69430448268826 
1761	-1.11569057412885 
1762	 3.34006671467346 
1763	-14.4890384490293 
1764	-17.5814884845859 
1765	-3.79734184447584 
1766	-5.61276668825773 
1767	-17.0856276372849 
1768	-17.8259172757856 
1769	-17.792143480653 
1770	-24.2965710374993 
1771	 3.82327695496345 
1772	 29.0983488097811 
1773	 33.473736721484 
1774	 39.5477299833707 
1775	 36.8431917992565 
1776	-1.64078002030859 
1777	-13.8217975725764 
1778	-14.4329767434176 
1779	-10.5590693709777 
1780	-7.8935287546888 
1781	-4.32598478088315 
1782	-6.77981784929604 
1783	-2.78503613971239 
1784	 2.57134902333732 
1785	 10.7908288357917 
1786	 15.0306524960605 
1787	 28.2937240197459 
1788	 39.8132216959898 
1789	 33.2501198768966 
1790	 31.7414640120682 
1791	 32.1654163378413 
1792	 14.8139049790528 
1793	 5.44017329623662 
1794	-0.880617888242325 
1795	-4.91235441125424 
1796	-14.1943593962756 
1797	-3.15811046282088 
1798	-5.11535144605891 
1799	-4.22566311444129 
1800	 10.3228752742084 
1801	 4.97130252540105 
1802	 16.6485154155555 
1803	 18.8195799201694 
1804	 14.9764610504463 
1805	 15.1507770932345 
1806	 23.3124163012313 
1807	 4.89087015879739 
1808	 5.71826106442211 
1809	 10.3738988199125 
1810	 7.58959705259201 
1811	 19.1305481448625 
1812	 18.3975170466121 
1813	 6.84695795934737 
1814	 8.34565237602799 
1815	 15.6063533562556 
1816	 17.8528507410182 
1817	 30.3136610909022 
1818	 31.5258954596699 
1819	 33.2352289513357 
1820	 23.0055486200869 
1821	 20.8663049759003 
1822	 26.2650577593298 
1823	 26.1485773462174 
1824	 21.1083709121197 
1825	 18.8308672302586 
1826	 14.0892388510379 
1827	 13.27588089564 
1828	 15.5697991023695 
1829	 19.6458512061682 
1830	 19.8160437340563 
1831	 21.2343183090048 
1832	 20.7589396582973 
1833	 12.246456499766 
1834	 13.5501039728492 
1835	 27.1821068098246 
1836	 27.6477416639802 
1837	 24.989833789401 
1838	 22.9108124360061 
1839	 16.77017748941 
1840	-3.88348167891513 
1841	-2.91831494976868 
1842	 11.3668174754183 
1843	 19.4145086532074 
1844	 41.9439237112762 
1845	 46.914928343689 
1846	 43.8805438766422 
1847	 35.311499928694 
1848	 13.9323401398117 
1849	-6.59345928788645 
1850	-26.7681808849226 
1851	-35.9177038388738 
1852	-40.0900994012632 
1853	-33.7844281035971 
1854	-30.6657682048298 
1855	-24.2338485849255 
1856	-18.8021228029224 
1857	-16.5307738217382 
1858	-2.90305169703038 
1859	 5.84992208514102 
1860	 19.0044054752408 
1861	 31.3964267746437 
1862	 28.6409778050462 
1863	 30.892239495811 
1864	 29.5405544330952 
1865	 32.3619690159549 
1866	 40.0947798508591 
1867	 43.3532828940986 
1868	 48.8763510531479 
1869	 46.4145432560412 
1870	 39.3963078605444 
1871	 30.0947932899539 
1872	 25.1011055127335 
1873	 22.275971609818 
1874	 7.50798507614567 
1875	 19.5036773487294 
1876	 29.374606476452 
1877	 44.9945379934355 
1878	 48.341208284875 
1879	 69.3387722292368 
1880	 59.7359871867399 
1881	 39.7339951357143 
1882	 40.1287446551865 
1883	 26.1782627339074 
1884	 17.3329676768005 
1885	 19.4273197614778 
1886	 15.0795375499475 
1887	 15.1123510034386 
1888	 22.6283259486536 
1889	 31.6751726350035 
1890	 31.2147861994107 
1891	 38.8518028687222 
1892	 39.8295524055931 
1893	 35.1809279928462 
1894	 37.2541732665516 
1895	 25.2559561891939 
1896	 20.909517648434 
1897	 15.5409385622457 
1898	 9.66122176016616 
1899	 1.9539776732364 
1900	-3.25561524176341 
1901	-16.3545889305472 
1902	-28.0878927498502 
1903	-34.8331171036313 
1904	-38.1558506980176 
1905	-26.1657171463769 
1906	-21.0142899047178 
1907	-24.9981809924504 
1908	-16.7789547522984 
1909	-3.7617335810966 
1910	 1.94332501932916 
1911	 25.2944860417631 
1912	 29.4810033235248 
1913	 17.4543401293774 
1914	-1.87824145761032 
1915	-7.11650944112637 
1916	-24.1113034041594 
1917	-24.7731985812457 
1918	-18.3473996814797 
1919	-18.9902667060785 
1920	-25.1715074970959 
1921	-23.5827275387507 
1922	-17.0006753005737 
1923	-13.1638796535819 
1924	-7.73463804638143 
1925	-3.51166984483518 
1926	 3.31563349231397 
1927	-1.63824106929267 
1928	-5.29739933475736 
1929	 0.527548227034212 
1930	 1.15063699180161 
1931	 1.25734111160663 
1932	-2.30807679987205 
1933	-12.5543262786967 
1934	-11.4185958539544 
1935	-12.3228697104961 
1936	-5.90164804433156 
1937	 20.6841417642543 
1938	 32.1484486032421 
1939	 38.0402310037914 
1940	 47.9509642072075 
1941	 45.8597666729601 
1942	 29.6284541079644 
1943	 23.7666266838352 
1944	 18.1289532154693 
1945	 9.85311870246135 
1946	 3.55957347910253 
1947	-3.67863795709946 
1948	-18.7174328548435 
1949	-26.1310092519423 
1950	-30.8913225069637 
1951	-31.5183541426241 
1952	-22.8830805208388 
1953	-19.7145674778687 
1954	-18.407496842491 
1955	-17.6755781205604 
1956	-13.9367311135475 
1957	-13.0344106647819 
1958	-9.8364890337839 
1959	-2.99484818621348 
1960	 5.29793366735885 
1961	 15.7646655664147 
1962	 22.0922876417863 
1963	 37.2195386792797 
1964	 39.8929831524341 
1965	 28.6505144482022 
1966	 17.5495466061608 
1967	 14.1489892918447 
1968	 9.72625310803699 
1969	 5.45958702468307 
1970	 6.27114220261599 
1971	 7.47806467953344 
1972	 5.61011111183457 
1973	 6.77403330937715 
1974	 16.6072108232208 
1975	 20.5220141521689 
1976	 19.1505722308784 
1977	 20.298187484347 
1978	 22.453059162159 
1979	 22.9083560087263 
1980	 24.7860761215033 
1981	 27.0356354834831 
1982	 29.9272439614034 
1983	 33.3621686212619 
1984	 36.6133253131376 
1985	 43.5460647050418 
1986	 43.2328749239333 
1987	 42.852118847465 
1988	 35.5802063332054 
1989	 12.5121441921024 
1990	 3.62503346731663 
1991	-6.15320687405964 
1992	-8.32330478016422 
1993	 4.60452235245112 
1994	 14.0903310481194 
1995	 17.2917223768765 
1996	 19.7993072914097 
1997	 18.1113559343373 
1998	 6.49502220302935 
1999	 4.17132859611277 
2000	 5.32979294720054 
2001	 2.38058287017441 
2002	 0.022825136736881 
2003	-1.39182055474695E-02 
2004	-2.86103944122582 
2005	-1.21316946838772 
2006	 5.06811287615647 
2007	-3.97943052706518 
2008	-11.0652926089778 
2009	-16.6094942635796 
2010	-21.3298698176782 
2011	-24.9886467078697 
2012	-24.547729994823 
2013	-27.1379576840944 
2014	-18.6720117045397 
2015	 1.52454533059488 
2016	 14.0864115797516 
2017	 38.2033129318502 
2018	 47.1383568938748 
2019	 43.4144765590205 
2020	 42.3469651251732 
2021	 37.2761703890079 
2022	 24.0984125275793 
2023	 12.4510145241989 
2024	 2.13813385163723 
2025	-3.89486334317015 
2026	-7.04208924809955 
2027	-10.9849129672824 
2028	-9.79633440082066 
2029	-16.7555993448825 
2030	-34.8420925550901 
2031	-40.4864488225991 
2032	-48.221435520028 
2033	-41.3679410717114 
2034	-27.9221725194645 
2035	-6.77540426072605 
2036	 6.62167035766264 
2037	 21.22308658165 
2038	 36.1435228402983 
2039	 35.0553286175151 
2040	 37.360350290015 
2041	 33.1801877017229 
2042	 30.4201501535194 
2043	 25.6305125847944 
2044	 23.511862547592 
2045	 26.8981065860341 
2046	 21.7273116984088 
2047	 8.57381010700365 
2048	-0.908669800740218 
2049	-17.146706890398 
2050	-27.5665348733705 
2051	-20.0884763731752 
2052	-9.05216447756306 
2053	-0.55018721111602 
2054	-3.16127312412233 
2055	-8.11966684194603 
2056	-15.2422747385584 
2057	-25.008255733823 
2058	-20.1204641905067 
2059	-14.2422716463146 
2060	-4.90262728915858 
2061	 3.48652602559809 
2062	 19.6286200295322 
2063	 28.5515248090225 
2064	 37.2060720298889 
2065	 31.8210309878822 
2066	 28.9623407681526 
2067	 29.7068662552901 
2068	 23.2633298206647 
2069	 20.7969040668481 
2070	 15.3090457093774 
2071	 7.79362090104349 
2072	 9.4906183750087 
2073	 12.6475900644434 
2074	 16.1474155385383 
2075	 20.3847068563301 
2076	 23.4118901065284 
2077	 20.6471892231313 
2078	 21.4420732583645 
2079	 30.2973341764774 
2080	 30.7801472664072 
2081	 26.7024850087597 
2082	 20.070482540384 
2083	 14.7223234963267 
2084	 4.96708680219557 
2085	-0.437380428740413 
2086	 1.59882333489399 
2087	 9.69698091116774 
2088	 13.4976274062608 
2089	 11.9300039819559 
2090	 15.8501453145588 
2091	 7.86549749439828 
2092	-2.7056157851597 
2093	-1.14896580927023 
2094	-3.75198180516997 
2095	 1.21268775544523 
2096	 19.3674336173345 
2097	 26.1172673881011 
2098	 31.4427898237728 
2099	 38.4886845666167 
2100	 30.7233469669213 
2101	 23.5761549584313 
2102	 17.8282073724017 
2103	 6.87457008815895 
2104	-3.38193016868386 
2105	-9.79289256116674 
2106	-7.26823397610305 
2107	-9.59917868239821 
2108	-1.81561545746477 
2109	 11.7077300381413 
2110	 16.350015980734 
2111	 20.355906901922 
2112	 17.2141853841999 
2113	 9.83786949644406 
2114	 6.96600518063766 
2115	 4.93251915389676 
2116	 6.97781063217799 
2117	 15.5600657917412 
2118	 16.3420335425266 
2119	 16.8145474550715 
2120	 11.0303114458631 
2121	 1.56547679620343 
2122	-6.24024445065997 
2123	-11.6096653920082 
2124	-13.0556254932601 
2125	-13.7722965355138 
2126	-10.0384308927792 
2127	-7.62071288496389 
2128	-5.37026010627549 
2129	 3.71827387872406 
2130	-0.602217324328852 
2131	-1.81430407021617 
2132	 1.60366328420876 
2133	-2.04910002305621 
2134	 11.0299676826821 
2135	 15.9409470832071 
2136	 21.1808441786706 
2137	 22.1063667363242 
2138	 16.7031560542874 
2139	 8.54949586912239 
2140	 0.281710811857028 
2141	-11.8215171524426 
2142	-31.859793827924 
2143	-39.0152783820491 
2144	-40.5503265055192 
2145	-40.8156839946314 
2146	-30.3141198699402 
2147	-16.5835520237863 
2148	-13.9708181895468 
2149	-8.09008052315365 
2150	 1.37010431193214 
2151	-5.97124483509682 
2152	-1.8975135292522 
2153	 11.0192720622707 
2154	 8.5336751579559 
2155	 12.7262987327599 
2156	 11.7090229522737 
2157	 6.58548186141162E-02 
2158	-3.06590243683638 
2159	-1.39181707105719 
2160	-0.639598221317241 
2161	 6.82086716237863 
2162	 8.24402126137727 
2163	 5.77896674334036 
2164	 3.4114633998812 
2165	 8.04308742067602 
2166	 9.39166011743614 
2167	 16.8408920447454 
2168	 23.8740077114093 
2169	 20.2076935399507 
2170	 23.2748728914293 
2171	 16.2959426791907 
2172	 9.06730215670009 
2173	 12.455066909444 
2174	 5.32751145767965 
2175	 9.74047971943869 
2176	 20.0604126660306 
2177	 19.9550002456949 
2178	 23.5051140096536 
2179	 27.0870737541249 
2180	 30.8149574735931 
2181	 31.434206143522 
2182	 29.8705473113396 
2183	 28.4597080100507 
2184	 22.1293450747113 
2185	 20.6243986435809 
2186	 24.6598168241741 
2187	 20.0217476649221 
2188	 15.2750455347926 
2189	 1.04046812545535 
2190	-17.4388801607921 
2191	-26.8482454584613 
2192	-27.699467411003 
2193	-30.5927630694577 
2194	-20.3677359369889 
2195	-5.65852914004203 
2196	-1.57223845391725 
2197	 14.1747845541056 
2198	 13.608630698411 
2199	 4.36202894333144 
2200	 1.09004757981831 
2201	-7.6438380717783 
2202	-6.44246634062467 
2203	-2.2938940101628 
2204	-4.84395297651519 
2205	-3.54474503672761 
2206	-4.86635850117738 
2207	-7.65797481584909 
2208	-11.6301785270181 
2209	-24.6158569364985 
2210	-27.0066586928311 
2211	-33.2801501408197 
2212	-27.1219944911185 
2213	 1.52205269962034 
2214	 16.8365092393295 
2215	 30.8621672862999 
2216	 40.4430048973442 
2217	 44.6265525487766 
2218	 42.5164328513318 
2219	 33.6038411709273 
2220	 31.711412344806 
2221	 22.6424050667923 
2222	 12.0546351730527 
2223	 7.70036582746134 
2224	 2.14466189760237 
2225	-9.30008330987497 
2226	-19.4389019846992 
2227	-30.6043003316623 
2228	-39.8877331562509 
2229	-37.0289543731768 
2230	-25.0144121445806 
2231	-5.42806959039217 
2232	 5.24073422556944 
2233	 14.9315145732185 
2234	 22.4259764466423 
2235	 13.5949229562164 
2236	 8.93199895591386 
2237	 6.50162498116376 
2238	-3.84665011399933 
2239	-6.14669997954586 
2240	 4.77069697863133 
2241	 9.26268908789537 
2242	 7.67946067224175 
2243	 4.23254094438569 
2244	-7.05877370615365 
2245	-14.176424128182 
2246	-21.4658822805352 
2247	-23.9303297196985 
2248	-24.3418240805759 
2249	-22.2662467822705 
2250	-18.0992737245007 
2251	-13.6205241919192 
2252	 1.19572772089647 
2253	 5.88699977245548 
2254	 4.83686717770495 
2255	 4.38529815154537 
2256	-0.193745705897497 
2257	-11.9292135518963 
2258	-9.31804938099999 
2259	-7.66942243631453 
2260	-5.37806912324465 
2261	 3.51979955309223 
2262	 6.59378232455786 
2263	 13.3697587045913 
2264	 20.1020766151857 
2265	 22.7378905030438 
2266	 27.4085987368639 
2267	 20.7775786981097 
2268	 9.33841600465802 
2269	-3.82414086435484 
2270	-17.2127349077194 
2271	-21.4524138839226 
2272	-20.6154443956349 
2273	-17.3981531517506 
2274	-9.10258819490822 
2275	 4.96810767322537 
2276	 12.314428604149 
2277	 28.5255201621495 
2278	 33.9320729599475 
2279	 24.0319173859582 
2280	 24.9048146671025 
2281	 21.1750186450475 
2282	 25.6603941603428 
2283	 33.5392822044194 
2284	 37.1863265511315 
2285	 40.660367136864 
2286	 36.4579638964064 
2287	 25.3395688952668 
2288	 13.2801328024812 
2289	-5.62475717102988 
2290	-19.4851299724228 
2291	-35.9872590848086 
2292	-47.2611105543021 
2293	-55.546890649377 
2294	-64.7121437853757 
2295	-73.0808921787462 
2296	-74.2059805571432 
2297	-69.8241995333003 
2298	-64.3961460676117 
2299	-49.9418207458844 
2300	-43.7894286314689 
2301	-50.2516293118438 
2302	-43.4575602441122 
2303	-31.5292356566377 
2304	-23.9246946224838 
2305	-4.24066464916355 
2306	 8.84614363723042 
2307	 16.5596189377533 
2308	 25.2499162063995 
2309	 38.9821019589357 
2310	 32.4384479150234 
2311	 26.9224811405606 
2312	 16.3889057055928 
2313	-8.29702446258174 
2314	-21.8118925004896 
2315	-25.9739898349987 
2316	-42.6497365936817 
2317	-36.7593684920506 
2318	-15.3082817064967 
2319	-2.46543041826694 
2320	 20.2409830857052 
2321	 31.1910943212371 
2322	 28.8834262366945 
2323	 33.8979715701699 
2324	 31.7402687773568 
2325	 35.0086846627183 
2326	 37.0186131748573 
2327	 25.8335797167353 
2328	 21.3232390322988 
2329	 15.7510046828345 
2330	 10.819240825406 
2331	 10.893403281051 
2332	 7.73836632906762 
2333	 0.127261761143755 
2334	-5.43084394947524 
2335	-10.8981791255277 
2336	-18.2337224187094 
2337	-13.205201332437 
2338	-12.3496717230206 
2339	-12.8079228344064 
2340	-2.03519644305382 
2341	-2.92473133345753 
2342	-5.90533313842883 
2343	-7.29098807632484 
2344	-16.4078383714296 
2345	-22.450473614917 
2346	-18.076938352171 
2347	-8.42199092521801 
2348	 3.05006452326112 
2349	 12.8684621034736 
2350	 11.2437251118895 
2351	 6.92172579811687 
2352	 1.93865362201715 
2353	-9.0332880684896 
2354	-13.548710083637 
2355	-18.7951410155178 
2356	-24.7258843795576 
2357	-14.940515924374 
2358	-5.2659332710308 
2359	 6.8722413944362 
2360	 15.0354657414871 
2361	 13.2181625419866 
2362	 6.5261208367119 
2363	-4.21264978357855 
2364	-6.87421322413166 
2365	-9.69352290181456 
2366	-3.39718973629426 
2367	-0.904048172923552 
2368	-5.41628659345531 
2369	-3.62132366803772 
2370	-9.33655664488609 
2371	-7.67175377071359 
2372	 3.50505695647376 
2373	 6.9401599144229 
2374	 7.51388740943788 
2375	 0.481209191758286 
2376	-17.4105859938434 
2377	-26.1545264310962 
2378	-19.5162995212003 
2379	-11.3175261311794 
2380	 0.47197382776791 
2381	 12.1780693774653 
2382	 3.78291363233981 
2383	-2.2365233074931 
2384	-2.3470766502459 
2385	-10.9266408005125 
2386	-5.0448788050037 
2387	-5.1613187165434 
2388	-12.7822394435943 
2389	-3.04569423264413 
2390	-8.41486685540751 
2391	-14.4492306024965 
2392	-9.51903483271502 
2393	-23.4880181712062 
2394	-33.4567067961041 
2395	-36.1958910479496 
2396	-41.7755585814714 
2397	-34.8612669943635 
2398	-23.634891941374 
2399	-10.3802907002295 
2400	 1.88196746128431 
2401	 7.17805496570503 
2402	 12.6356003346155 
2403	 9.38710360148415 
2404	 9.91498171726643 
2405	 11.4567077927636 
2406	 7.69148499259402 
2407	 11.2227525066294 
2408	 10.9331484145104 
2409	 6.00588327646047 
2410	-0.202664638436548 
2411	-8.98613085078127 
2412	-22.0942484597906 
2413	-31.3003947442752 
2414	-33.236179400593 
2415	-29.8173526238018 
2416	-22.0845299782048 
2417	-15.5821312506489 
2418	-10.7229933810121 
2419	-5.24024802115383 
2420	-6.12936325580505 
2421	-10.2759723776928 
2422	-11.0118516552723 
2423	-17.7620374044885 
2424	-18.2531396734033 
2425	-17.4496298588771 
2426	-20.2664732944427 
2427	-21.5405219274718 
2428	-28.0931933321476 
2429	-28.8283295799007 
2430	-24.6648181074362 
2431	-24.3681425115582 
2432	-26.6509100440565 
2433	-22.084486914976 
2434	-18.6430787194522 
2435	-16.7127919753213 
2436	-6.05946277000703 
2437	-8.10087129901407 
2438	-13.8920406658847 
2439	-15.9660539365235 
2440	-26.964397449382 
2441	-22.8880611727662 
2442	-11.7280735130893 
2443	-9.3294628191388 
2444	 5.95108203728913 
2445	 13.1388935996113 
2446	 6.065869161875 
2447	 10.6964186099588 
2448	 11.2741392786281 
2449	 10.0866691751207 
2450	 15.0642615585813 
2451	 13.871443624652 
2452	 14.3700859706747 
2453	 6.71713106545773 
2454	 5.23185052629823 
2455	 12.7596663872729 
2456	 9.1652837443737 
2457	 20.1261023007882 
2458	 21.0505193755483 
2459	 5.39282365867853 
2460	-4.08837728102941 
2461	-17.8186248102237 
2462	-30.744703261047 
2463	-38.0352340479861 
2464	-35.4701622422465 
2465	-37.9750243227124 
2466	-38.4657106917129 
2467	-31.8008968386888 
2468	-33.8024241105588 
2469	-25.3465308935317 
2470	-21.9376842133348 
2471	-12.4603859132334 
2472	-8.04998575651372 
2473	-10.2971120804697 
2474	-1.43696528453254 
2475	 0.156875290363585 
2476	 1.09853467456438 
2477	 12.0188279748556 
2478	 15.6211397489017 
2479	 7.70619039161777 
2480	 4.83367960895971 
2481	-6.09319490503227 
2482	-20.4225123404224 
2483	-27.4615920756766 
2484	-28.6843274157538 
2485	-33.282826632619 
2486	-38.3745648642972 
2487	-39.6149277338158 
2488	-51.7666249636452 
2489	-53.0765145831399 
2490	-46.7427847373523 
2491	-36.7519132665699 
2492	-19.4080653430509 
2493	-10.302855246001 
2494	-0.737770053316697 
2495	 4.61700866748965 
2496	 5.07241328269311 
2497	 3.35457904762724 
2498	-1.43612593597969 
2499	 0.541889635249946 
2500	-4.04214966047576 
