Wavelength	4mm_blackTPU00000.asd
350	-1.88786181577974 
351	-1.29009540125801 
352	-0.119926537069961 
353	-1.21815164549765 
354	-0.688320973031926 
355	 0.430464758743347 
356	 0.713810544041001 
357	 3.97198298702383E-02 
358	-0.483624349366656 
359	-0.708257926231782 
360	-1.25631318690617 
361	-0.42658272536109 
362	 0.689630641563906 
363	 0.650557448861799 
364	-0.754206944952867 
365	-0.584659247082544 
366	 1.13006655835947 
367	 0.46543001573319 
368	 2.14245955966647 
369	 3.42086808997662 
370	 0.390097532310838 
371	-1.56633302977148 
372	-1.64393507897109 
373	-0.446783872003898 
374	-0.540192938927368 
375	-8.00115750485304E-03 
376	 0.298961014158263 
377	-1.43742179676778 
378	-2.00568241233468 
379	-1.06179888643181 
380	 0.46876372215355 
381	-0.644562866637429 
382	-1.75541347410234 
383	-1.64692101679962 
384	-0.314621358667652 
385	-0.377332143455458 
386	-0.925717919749994 
387	-0.502232836247177 
388	 0.171471096167505 
389	 0.299887464385533 
390	-0.173827305212569 
391	-0.205848144661219 
392	-0.163816976982503 
393	-5.40507191062908E-02 
394	 0.212186867541565 
395	 0.768486348907223 
396	 0.175227187119103 
397	-1.67016461068478 
398	-0.999905498959217 
399	 0.261481457744563 
400	 0.987470781433627 
401	 0.560570064849172 
402	 5.57002354866426E-02 
403	-0.635754630763883 
404	-1.52121105685747 
405	-0.680390350491347 
406	-0.344731301516123 
407	-1.15054443832489 
408	-1.1812923084234 
409	-0.249896967411289 
410	 0.557725987969036 
411	-0.228727200220693 
412	-0.640681075313024 
413	-0.744817048522507 
414	-0.84525517141803 
415	-1.13386598172819 
416	-1.1018461212561 
417	-0.56515688773021 
418	 0.37029385093124 
419	-0.343291416408093 
420	-0.940265097077271 
421	 0.430529665246443 
422	-0.57176070291568 
423	-0.920139502892319 
424	 0.486209154789253 
425	 0.4194001051974 
426	-1.03159242528923 
427	-2.34014836693243 
428	-1.21404888753661 
429	-1.2207915951494 
430	-1.10874374463305 
431	 0.226813431365401 
432	-0.173803074547027 
433	-0.095720560835414 
434	 0.753901709890699 
435	 5.36644925959329E-02 
436	 1.40657794035972E-02 
437	 0.166109345451599 
438	-0.650940911469589 
439	-4.05211896667866E-02 
440	-0.650518396602883 
441	-3.11841138480946 
442	-0.530769636468898 
443	 0.037453808684445 
444	-1.94892280005954 
445	-1.25350192784504 
446	-1.51474706044747 
447	-2.45846481952303 
448	-2.73653913335417 
449	-1.35927228179934 
450	 0.269968433717276 
451	 0.651069178924374 
452	-2.1881642273621 
453	-2.84034174946599 
454	-1.06962217809404 
455	-0.111124068360139 
456	 1.32014860981327 
457	 1.62560257314606 
458	-0.373070808765678 
459	-1.01621771439124 
460	-1.55039060501525 
461	-2.51234881022909 
462	-2.80791910439183 
463	-2.1679607350296 
464	-0.996960955779318 
465	-0.21710743800561 
466	-1.03249886828738 
467	-1.99256570229184 
468	-1.67579559680698 
469	-1.19032565408762 
470	-0.152704932353962 
471	 0.805297985897864 
472	-0.819104823599133 
473	-2.13674191238324 
474	-2.41638460175117 
475	-1.90135855490144 
476	-0.829700707346156 
477	 0.052780154432861 
478	 0.133741258192383 
479	-0.592146776776302 
480	-1.22635019724185 
481	-1.65863666322666 
482	-2.97308970291621 
483	-3.33162798201299 
484	-2.39630117191014 
485	-0.720844423914452 
486	-1.02901401511213 
487	-1.8477851199037 
488	-1.69655403459517 
489	-1.6079467681588 
490	-1.25315077829608 
491	-0.758027278914899 
492	-0.857502551762417 
493	-1.44852864073627 
494	-2.10210334666256 
495	-2.27676260730619 
496	-2.75940774669495 
497	-1.8918051942569 
498	 0.628374356377543 
499	-0.700811815230872 
500	-1.66506062180252 
501	-1.39004547578686 
502	-3.50975588604433 
503	-3.15502528217297 
504	-1.07179194851666 
505	-0.347225386713092 
506	-1.99131196329646 
507	-3.06736284127982 
508	-1.70543725671939 
509	-1.86569822493639 
510	-2.1580474582442 
511	-1.96354708800381 
512	-1.67315495167175 
513	-1.53391553724396 
514	-1.46124870369139 
515	-1.2782058320713 
516	-1.90114428172299 
517	-2.78867011747742 
518	-3.0696767450184 
519	-1.27983072106946 
520	-0.818302163165943 
521	-2.22255843086983 
522	-1.76287956245528 
523	-2.61576852934413 
524	-3.64025699582149 
525	-2.08548456983283 
526	-2.20631954892665 
527	-2.60054107262682 
528	-1.774589973975 
529	-2.2058987728844 
530	-2.61631245939799 
531	-2.29499859024549 
532	-1.32331505798608 
533	-1.59321782181225 
534	-2.63710440528365 
535	-2.6931163158538 
536	-2.00127361776305 
537	-1.74624669789601 
538	-2.65651823944271 
539	-2.54916606360233 
540	-1.0015636546091 
541	 0.873005011864781 
542	-1.20714538444631 
543	-2.1067221419389 
544	-1.94451114149936 
545	-3.7703350197207 
546	-3.36134280637983 
547	-1.97556041418956 
548	-1.75809715047885 
549	-1.98165440625493 
550	-2.53885951964267 
551	-3.1168087381399 
552	-2.90055609860673 
553	-1.83992521515066 
554	-1.14569816967243 
555	-3.08338056422487 
556	-3.3364975705095 
557	-2.28183467464518 
558	-1.62880238236424 
559	-2.24163609843978 
560	-2.17990564448614 
561	-0.871155658820141 
562	-1.93233318506696 
563	-2.37971127960177 
564	-1.81464155109812 
565	-2.12236651228982 
566	-2.8888653050081 
567	-3.37793288695196 
568	-2.75200295771011 
569	-0.865403213952773 
570	-0.124851957033285 
571	-1.59021513620159 
572	-1.44513661140298 
573	-1.98460842269397 
574	-3.32922353734625 
575	-3.00293021149139 
576	-2.09336467106252 
577	-1.32345872206492 
578	-1.33804422492283 
579	-2.04366225793186 
580	-2.45318160015903 
581	-2.01898378725341 
582	-2.3094832867604 
583	-3.05550938705273 
584	-3.21847131981844 
585	 0.162807457262891 
586	-0.602732983466879 
587	-4.42858591756937 
588	-5.56267915397703 
589	-3.78309426463645 
590	-1.58892605352237 
591	-1.37666695014664 
592	-1.35439009905675 
593	-1.67262677245508 
594	-2.21488999425055 
595	-2.15207535470658 
596	-1.69838637687397 
597	-1.23265654556991 
598	-1.33077267880121 
599	-2.19785610062786 
600	-3.11988640859464 
601	-3.33786406438133 
602	-3.77887685504987 
603	-3.63888307600674 
604	-2.48999589917441 
605	-0.776547587964487 
606	-0.735667556663979 
607	-2.01680795308147 
608	-1.78313839669786 
609	-2.97888981879942 
610	-3.98997403039926 
611	-2.32862235541262 
612	-1.85426097396903 
613	-1.95030734130001 
614	-1.94266505369255 
615	-3.00540687017204 
616	-3.23390273239271 
617	-2.33247174771193 
618	-1.85808092413522 
619	-2.98489014579272 
620	-4.16965065268688 
621	-2.95711584896964 
622	-4.07240633929488 
623	-4.73445321355088 
624	-2.5512544684577 
625	-1.49163045708006 
626	-1.57658855918224 
627	-2.23436109994818 
628	-1.95885703589583 
629	-2.32391939533834 
630	-3.16415933308039 
631	-3.38014635806478 
632	-2.15464310559114 
633	-1.07804593858367 
634	-1.70310468154311 
635	-2.46609717055125 
636	-2.46419712520417 
637	-2.04779922935217 
638	-4.60661965689624 
639	-4.17945089718087 
640	-1.28449579552773 
641	-1.16597385144915 
642	-0.960863037524588 
643	-1.11172416311072 
644	-2.48538463333378 
645	-3.37250387840322 
646	-2.92418895671097 
647	-1.37327996389616 
648	-1.31719857261703 
649	-1.91216345450117 
650	-2.50106265151795 
651	-2.43526599157598 
652	-2.74734849225182 
653	-2.91794949760413 
654	-2.17536227733241 
655	-2.82964957244962 
656	-3.82559429981681 
657	-4.15038245636408 
658	-4.45917606813352 
659	-4.41190308902229 
660	-3.73682034558314 
661	-2.07279738699041 
662	-1.5825356970126 
663	-2.3434399049783 
664	-3.32210907296776 
665	-2.50067632423962 
666	-2.07309346630444 
667	-3.68297684031201 
668	-3.78266945978357 
669	-3.20267453956865 
670	-2.72641110489517 
671	-3.13202512042725 
672	-2.07327377738527 
673	-1.22132581957048 
674	-4.18052668301151 
675	-3.61813725256744 
676	-1.62617326536396 
677	-1.61164712066517 
678	-2.54995750947907 
679	-2.84298097393023 
680	-2.27071674490403 
681	-3.62558798064845 
682	-3.27905984481201 
683	-2.12515748171599 
684	-4.02850698134589 
685	-3.71279581023494 
686	-2.25103091382673 
687	-1.96385540045691 
688	-1.77187734149216 
689	-2.06084854091412 
690	-2.91842639166887 
691	-3.6768989285048 
692	-3.5370079218745 
693	-2.91230553423591 
694	-3.32257420235924 
695	-2.27444029764098 
696	-1.27648055478874 
697	-2.48114325507989 
698	-3.19269077420046 
699	-2.76196286337408 
700	-1.46114548161509 
701	-1.36825794128903 
702	-0.796192507700138 
703	-0.273983878524264 
704	-2.65189998919243 
705	-3.2239821842832 
706	-1.99796407634729 
707	-0.86354857940454 
708	-2.41940576457427 
709	-3.49695186764345 
710	-1.98346725611679 
711	-0.839184604315091 
712	-0.782669360624728 
713	-1.57291029901746 
714	-1.81143142276083 
715	-2.18651247022098 
716	-2.35749469376537 
717	-1.76640188212815 
718	-1.27688746683374 
719	-1.85134011350663 
720	-3.46629053702923 
721	-2.83995245064445 
722	-2.96434441070607 
723	-4.19018275244166 
724	-3.4214016391718 
725	-3.55860898120937 
726	-4.29189085820849 
727	-4.05318326694435 
728	-2.43053035884008 
729	-1.65650016126745 
730	-2.89641725344617 
731	-2.12434340344475 
732	-2.15770537456471 
733	-3.446249810304 
734	-3.11204163083976 
735	-4.19108449175215 
736	-4.89947214642235 
737	-1.9397929150157 
738	-0.499062568971542 
739	-0.849527508932563 
740	-2.16993591801933 
741	-3.03423211481612 
742	-4.14932760927155 
743	-5.11444768509484 
744	-3.80749921798839 
745	-2.88895817979289 
746	-2.48019614991243 
747	-1.75538930187646 
748	-1.96409892087335 
749	-2.51902404309808 
750	-2.73730204963718 
751	-2.63101292999404 
752	-2.52201128162583 
753	-2.66812884714557 
754	-3.35457165078634 
755	-2.94708232340593 
756	-2.20259698451481 
757	-2.76499994550942 
758	-3.62012806033205 
759	-3.97629678033254 
760	-3.6043615660193 
761	-4.03284752132832 
762	-3.72983709854951 
763	-3.10005843554196 
764	-5.09538297994468 
765	-4.67183174943371 
766	-3.09367560295339 
767	-3.59015517086512 
768	-2.95512177409683 
769	-2.65475742699653 
770	-3.49147627263383 
771	-2.52572161313692 
772	-1.7880901606647 
773	-1.86103807277706 
774	-1.91749837182124 
775	-1.64591238805906 
776	-1.80600074528714 
777	-3.10874910701007 
778	-2.68358492266234 
779	-1.87936858437062 
780	-1.8881804257158 
781	-2.54301895427277 
782	-2.40744321922475 
783	-1.87140703993565 
784	-2.87929989155338 
785	-2.39263462468191 
786	-2.09171773081663 
787	-3.93128014125315 
788	-3.18613471277877 
789	-2.07969008523055 
790	-2.26227584235368 
791	-3.59174329158036 
792	-3.07669598816973 
793	-1.08895793302443 
794	-0.285349365202086 
795	-2.37311132412022 
796	-4.2735306929212 
797	-3.09302942189782 
798	-1.78016334204286 
799	-1.73914415879807 
800	-2.99872657428896 
801	-3.66560847025165 
802	-3.5173932508627 
803	-2.90742062676287 
804	-2.5737564386047 
805	-2.62680071056101 
806	-2.38814148908277 
807	-1.7936894599846 
808	-3.4664220050786 
809	-3.98411953966225 
810	-2.4499252409765 
811	-0.591592554993484 
812	-1.28675350582041 
813	-2.88950112916794 
814	-2.56639582906664 
815	-1.96895831263378 
816	-1.13108433213466 
817	-0.586987666056196 
818	-2.77117564290076 
819	-3.33208511095348 
820	-2.10437843857411 
821	-1.7302837384816 
822	-1.76957319863697 
823	-2.41000853957122 
824	-3.53300519716557 
825	-3.58318521161905 
826	-2.82724624234224 
827	-1.84171589192838 
828	-1.58561960453542 
829	-1.49849986715877 
830	-1.80194379803836 
831	-2.85299541815408 
832	-3.64892918796462 
833	-3.51572491870373 
834	-2.6112058923162 
835	-3.12923436489035 
836	-3.60809152215799 
837	-3.21860306325545 
838	-1.62438175627127 
839	-1.59452063031609 
840	-1.80749721627185 
841	-0.874347622570685 
842	-2.5798372573909 
843	-3.98203695983612 
844	-3.85542956244019 
845	-3.9945489361054 
846	-3.46810507981148 
847	-2.35965875619957 
848	-1.20746916666433 
849	-0.608028589058786 
850	-1.84654156771902 
851	-4.35996464340996 
852	-2.51511425487963 
853	-1.33577177019597 
854	-1.53067102251597 
855	-0.803798403945909 
856	-1.40190380013798 
857	-2.5230985554274 
858	-3.01167686891307 
859	-3.31136676299316 
860	-2.6565403597412 
861	-1.51472839204673 
862	-1.99414750704838 
863	-2.72955249367769 
864	-3.66291341207981 
865	-4.81563511183814 
866	-4.03600162841057 
867	-2.53201697841847 
868	-1.45915516920244 
869	-1.11505028391986 
870	-3.10582094002149 
871	-5.67046234169986 
872	-5.42187505652448 
873	-4.30224021665436 
874	-3.18695961653598 
875	-2.59076057266851 
876	-2.45457453570146 
877	-2.7818558087028 
878	-2.93055268051948 
879	-1.80612715470174 
880	-1.93276044204478 
881	-2.57705920133627 
882	-2.55848969159035 
883	-2.09797091742298 
884	-2.20201136088095 
885	-2.89946111688074 
886	-3.06634532024875 
887	-2.82407066406588 
888	-2.58122701263736 
889	-2.67193893175192 
890	-2.10937433154011 
891	-2.36697117918846 
892	-3.4861917743689 
893	-2.97619474486575 
894	-2.59734636995197 
895	-2.46624944086297 
896	-2.16381688719654 
897	-1.79210900949918 
898	-2.26174764393618 
899	-3.47098847825016 
900	-3.05936123776656 
901	-2.82661106483593 
902	-2.29532446264489 
903	-0.385843375258021 
904	-0.958354985302383 
905	-2.59605109189214 
906	-3.43902936827998 
907	-1.98253466998887 
908	-2.09404915076575 
909	-3.53397838733581 
910	-3.56818822974415 
911	-0.812506796430056 
912	 0.243679497576098 
913	-2.70169268820228 
914	-3.70734549916554 
915	-3.95808381285636 
916	-3.69797673909761 
917	-2.79012426141219 
918	-2.95302543934186 
919	-3.4354037023415 
920	-3.31966559249596 
921	-2.61468435431549 
922	-1.62431985541345 
923	-1.01165933750865 
924	-1.57257234497314 
925	-1.08079437879044 
926	-1.55515902737425 
927	-3.9032287506926 
928	-3.19261601338245 
929	-1.97590218327192 
930	-1.52987903298424 
931	-2.07570442652224 
932	-1.37574300490063 
933	-1.46528263303519 
934	-3.58637445598145 
935	-4.42419349403682 
936	-3.06939756553194 
937	-1.52653490198525 
938	-3.52044900846917 
939	-2.75336999980189 
940	-1.87149426469322 
941	-3.15239073667009 
942	-3.4155271221049 
943	-2.48564075224215 
944	-1.52965146765063 
945	-2.49404397232477 
946	-4.12519470107384 
947	-4.73642678596964 
948	-3.79318867989359 
949	-3.78767766050232 
950	-2.61002614696088 
951	-1.28942764688855 
952	-2.17651762530528 
953	-2.77706380716483 
954	-2.2431043911111 
955	-1.16951748775827 
956	-2.97669269317104 
957	-3.528238632264 
958	-2.45520522879975 
959	-1.24670061878957 
960	-2.21558003545963 
961	-2.94848710872208 
962	-2.34262636892662 
963	-2.1578686739659 
964	-1.7713301427649 
965	-1.87377843079127 
966	 7.00801575841963 
967	 2.57154598712511 
968	 0.746837356361328 
969	 1.07826141355146 
970	 4.19440453505499 
971	 4.71979817750249 
972	 7.70063326587357 
973	 6.87867884607781 
974	 0.324830499679885 
975	-2.40898130060318 
976	-6.11184265829147 
977	-5.9805882305797 
978	-0.634498824522729 
979	 4.94605987412429 
980	 7.04383574413786 
981	 7.56167269255535 
982	 3.81767162339639 
983	-6.71315440073105E-02 
984	 2.22904091574925 
985	 4.81303157884211 
986	 5.29186704199496 
987	 6.28420570398956 
988	 6.67493026308518 
989	 4.219875148509 
990	 3.04941511081393 
991	 3.48829420704847 
992	 2.91134738926361 
993	 1.0420516938912 
994	 0.732566502662765 
995	 0.289470602200893 
996	-2.52189106117485 
997	-5.18490430614617 
998	-5.08413981524029 
999	-1.84775490874673 
1000	-0.110102215789551 
1001	-0.032435235418089 
1002	-0.10627240546557 
1003	-0.247636775349794 
1004	-0.756024271216003 
1005	-1.49283014926827 
1006	-0.638606334073096 
1007	-5.37971384247466E-02 
1008	-0.930169166601876 
1009	-1.81553119661968 
1010	 2.02664269940016 
1011	 0.107912091717855 
1012	-3.10493772091128 
1013	-1.15991288348332 
1014	-3.38246758457959 
1015	-3.58971006831696 
1016	 5.82501479275027E-02 
1017	 0.958249035231072 
1018	 2.54972830254402 
1019	 5.40146820182738 
1020	 6.63651621239202 
1021	 5.34207400150871 
1022	 2.50780360928884 
1023	 1.26497428427502 
1024	-0.424954723528564 
1025	-0.341549731041558 
1026	 0.288695922737776 
1027	 0.644270112461683 
1028	-0.728982455245801 
1029	-2.51443318990249 
1030	-1.42259999276066 
1031	-0.381895978961108 
1032	 2.68682455198793 
1033	 3.94140170222146 
1034	-1.12190675904079 
1035	-1.80155330110523 
1036	-0.403592428172294 
1037	-3.30215689758285 
1038	-3.63038682815987 
1039	-2.07773721953833 
1040	-2.13422165212349 
1041	-3.4111152691601 
1042	-2.69887869037974 
1043	 0.108681418139616 
1044	-3.0836193787925 
1045	-2.03745309533846 
1046	-0.869973982858363 
1047	-0.50741045850868 
1048	 4.20229272248717 
1049	 3.58256043604587 
1050	-7.63166216944269E-02 
1051	 0.263901433445894 
1052	 0.165822372111731 
1053	 2.62417478629094 
1054	 6.32665723793683 
1055	 6.70024477412779 
1056	 6.72074565750544 
1057	 6.21022720404073 
1058	 3.62172649876162 
1059	 4.13267384507295 
1060	 7.05229830390865 
1061	 6.58550261772955 
1062	 5.29593464581493 
1063	 6.36074076776834 
1064	 3.32191048643176 
1065	-0.620633494713818 
1066	-1.81945228114613 
1067	-1.86487319616947 
1068	-0.90266294154528 
1069	-1.24387824810269 
1070	 2.9421471177366 
1071	 6.47389343680772 
1072	 6.00003250225527 
1073	 5.13196228366059 
1074	 1.99303483858512 
1075	-8.08158238087664 
1076	-10.2916424406965 
1077	-10.0979661497516 
1078	-8.87336718704037 
1079	-1.65916892406712 
1080	 0.402799060366549 
1081	-0.202755736649406 
1082	 0.125736096428255 
1083	-1.17889008783823 
1084	-0.957043607285762 
1085	-0.229952390249896 
1086	 0.826247319897259 
1087	 1.49166042514573 
1088	 0.998709853209902 
1089	 0.212111364784704 
1090	-1.72443427029108 
1091	-2.94208642640132 
1092	-5.52835568776843 
1093	-5.73291810347169 
1094	-3.83233353286138 
1095	-2.5511897713327 
1096	 1.17940813624706 
1097	 1.77288636687374 
1098	-0.361003881034203 
1099	-1.29699841604325 
1100	-3.70871676095326 
1101	-5.02940198650918 
1102	-6.07599872728884 
1103	-5.54226366763674 
1104	-4.80260064334852 
1105	-1.20745251107225 
1106	 0.63041680377459 
1107	 3.59178939342618 
1108	 3.83942379944912 
1109	 0.451905758836686 
1110	-0.420369425947081 
1111	-1.65791870774585 
1112	-2.26960644144823 
1113	-2.16163119274924 
1114	-1.3448262004453 
1115	-8.77227725229521E-02 
1116	 1.35623422921501 
1117	 5.48820353223827 
1118	 5.51783126641833 
1119	 2.13653145618392 
1120	 1.24925494108806 
1121	-0.957347946092854 
1122	-2.03034585420317 
1123	 0.565771331862834 
1124	 0.728490641262917 
1125	-1.03189762692233 
1126	-2.96379376410866 
1127	-3.23316295726482 
1128	-3.67604625272175 
1129	-3.47738418951039 
1130	-1.95282017349378 
1131	-0.574630642990595 
1132	 1.32461737058855 
1133	 1.8472476525247 
1134	 2.80360217370666 
1135	 2.77423787689377 
1136	 0.903143895228226 
1137	-0.35452807897695 
1138	-2.56080508840559 
1139	-2.68643295410879 
1140	-2.37620137292487 
1141	-1.33001040034673 
1142	 4.00509653105714 
1143	 5.13475567184934 
1144	 2.6464149227179 
1145	 2.47792716230581 
1146	 2.07003647713963 
1147	 0.914749852861314 
1148	-2.60512818512484E-02 
1149	 0.739889351065073 
1150	 0.302242652053842 
1151	-2.43242389862262 
1152	-2.34335994725266 
1153	-0.679286152868448 
1154	 1.22962732673861 
1155	 5.01704615044097 
1156	 6.22410313544518 
1157	 7.798497435108 
1158	 7.39299219922504 
1159	 4.09376554072112 
1160	 2.0424951378012 
1161	-1.09474393881498 
1162	-2.7475043196204 
1163	-3.38482971879181 
1164	-4.63469875010792 
1165	-6.44008329441327 
1166	-6.36331987927301 
1167	-7.66158779121841 
1168	-4.357411610668 
1169	 0.90155183002885 
1170	 3.54429394444921 
1171	 4.96800045244969 
1172	 5.23549370461577 
1173	 5.40983486238382 
1174	 3.46203123860923 
1175	 3.77029965135066 
1176	 5.5672452547575 
1177	 5.84588280536883 
1178	 6.44030617223857 
1179	 5.93417684409541 
1180	 3.03631440810566 
1181	 2.41982491733802 
1182	 3.17975202030736 
1183	 2.83288544586524 
1184	 3.23880999698464 
1185	 3.07122935791825 
1186	 1.25222625193221 
1187	 0.578212050707818 
1188	 1.39984008016972 
1189	 0.551478031051911 
1190	-2.40891900633511 
1191	-3.28359284476023 
1192	-2.14737657457647 
1193	-0.103565779887985 
1194	 3.60631355323702 
1195	 4.84950909742123 
1196	 6.69287987091265 
1197	 7.11707902122833 
1198	 7.81290109453834 
1199	 10.3485553676065 
1200	 9.57123365471149 
1201	 4.75177483014439 
1202	 3.9979188114063 
1203	 4.15043675338475 
1204	 3.40587794684055 
1205	 4.39342620975551 
1206	 4.69409091865595 
1207	 3.37818158658687 
1208	 2.52165636192444 
1209	 2.60710048435217 
1210	 1.3666255940171 
1211	-3.22785029178048 
1212	-2.05091564398379 
1213	-4.23747555539489 
1214	-2.96584470030088 
1215	 2.4409215179355 
1216	 4.09178523241133 
1217	 6.4808203507362 
1218	 8.31464786619109 
1219	 2.52365982732642 
1220	-2.46864252654951 
1221	-4.12750207973673 
1222	-6.30807383704797 
1223	-6.02503121627183 
1224	-0.160712415934401 
1225	 1.24245338292289 
1226	 1.64884937238263 
1227	 2.11361922100525 
1228	 0.760356150833204 
1229	 0.343073598891465 
1230	 0.279628460910457 
1231	 0.751884402803416 
1232	 1.73830478435115 
1233	 2.48783690849134 
1234	 3.87159465083742 
1235	 3.62877547933765 
1236	 1.41764271740417 
1237	 1.86265696849613 
1238	 2.13416829277845 
1239	 2.27771995878991 
1240	 5.62351411990019 
1241	 7.11166734998973 
1242	 6.89803781134818 
1243	 7.84171207926543 
1244	 7.10188293435401 
1245	 7.36716211321846 
1246	 10.0392361126014 
1247	 13.1041913120759 
1248	 14.5608154126781 
1249	 12.0087104206101 
1250	 8.70058754228778 
1251	-0.849485016533236 
1252	-2.86181178096082 
1253	-1.18086799847098 
1254	-0.601169622899502 
1255	 3.30103696256921 
1256	 4.64241077012245 
1257	 3.48196425039582 
1258	 2.78589237202938 
1259	 2.32911880639032 
1260	 2.25604440338563 
1261	 1.0530337618472 
1262	 1.6818269278447 
1263	 5.3482187631806 
1264	 7.28098872195012 
1265	 6.85226633752458 
1266	 5.31294504005548 
1267	 3.27933856635264 
1268	 0.432868220079316 
1269	-0.663626266162163 
1270	 0.586566103190816 
1271	-1.30838452744334 
1272	-1.27465537596004 
1273	-1.46261047799669 
1274	-3.42260871768387 
1275	-1.91571639467096 
1276	-3.90180183887381 
1277	-3.17713720177571 
1278	-0.399072098633366 
1279	-0.304688902333915 
1280	-0.759060054808517 
1281	-0.677279884179138 
1282	-3.54866544888395 
1283	-2.89561850706709 
1284	-0.321060852066098 
1285	 1.17299368672529 
1286	 4.89496111328912 
1287	 6.16102969440949 
1288	 6.06407947239956 
1289	 6.24012002944862 
1290	 3.66905605493099 
1291	 1.39648442671424 
1292	 0.670667082572326 
1293	 0.580392278350949 
1294	 0.205049069335305 
1295	-0.496891297472257 
1296	-4.68975937159042E-02 
1297	-3.24647459461335 
1298	-5.95771998454435 
1299	-3.77585365644298 
1300	-3.75498698208623 
1301	-4.58551114277358 
1302	-1.23054008711664 
1303	 0.223342128615355 
1304	-1.11186587624605 
1305	 0.822153491116883 
1306	-8.49719148503258E-02 
1307	-1.23665897294984 
1308	 1.54694526229621 
1309	 1.61006170234632 
1310	 1.64071554028853 
1311	 2.70686801295013 
1312	 2.5833265999309 
1313	-0.12881059962771 
1314	 8.81521143056123E-02 
1315	 2.14357560586676 
1316	 2.83631601096133 
1317	 4.56716919977652 
1318	 4.68151582404669 
1319	 3.564606877794 
1320	 1.60156016072119 
1321	 1.4434165996993 
1322	 2.58932343980101 
1323	 4.14118525684768 
1324	 6.14627677488507 
1325	 4.19061437013715 
1326	 2.66568610162239 
1327	 3.58242753037102 
1328	 1.99756700520135 
1329	 1.38049777056737 
1330	 0.381751098582446 
1331	-1.40458134766617 
1332	 0.210946317399114 
1333	 3.48782183640318 
1334	 5.86490276857767 
1335	 6.19524213827493 
1336	 6.06706962785044 
1337	 4.45548504219034 
1338	 3.5052605413278 
1339	 3.68327422567113 
1340	 0.393510824277159 
1341	 0.303014326552103 
1342	 1.44357633065798 
1343	 1.421982053355 
1344	 3.40368299806019 
1345	 2.16723221521256 
1346	 1.71420475036268 
1347	 1.95747613818485 
1348	 1.42251226468504 
1349	 3.2250246321773 
1350	 8.24711354092321 
1351	 9.06434147665469 
1352	 10.4454251246902 
1353	 10.8538889669117 
1354	 8.11003774313408 
1355	 6.95133204858638 
1356	 7.11583843271307 
1357	 4.26425596783233 
1358	 3.7563010960441 
1359	 2.60534125901548 
1360	 1.71979605537127 
1361	 3.364465694632 
1362	 5.30743654915573 
1363	 5.75204288061038 
1364	 4.94428272685816 
1365	 5.5209380450598 
1366	 3.05117475362068 
1367	 3.45136417157559 
1368	 7.39988611854999 
1369	 7.40362966165809 
1370	 9.6487781127717 
1371	 9.48227879212747 
1372	 8.214925454152 
1373	 8.04612617618301 
1374	 5.08699586313619 
1375	 6.23642321860888 
1376	 4.85677802145609 
1377	 5.23501984054078 
1378	 9.44884236688489 
1379	 8.64731681574193 
1380	 9.86702439228772 
1381	 8.33845719374709 
1382	 2.90386736214855 
1383	-3.08216748719322E-02 
1384	 0.691427850864269 
1385	 3.9827169315675 
1386	 8.66420929947129 
1387	 13.8581100245972 
1388	 13.0346852729932 
1389	 10.9949756633318 
1390	 10.9475361515127 
1391	 10.3990787812834 
1392	 10.8658614575536 
1393	 14.7914007244429 
1394	 14.8440680781701 
1395	 13.0155339143047 
1396	 12.5064973327573 
1397	 9.30748577560464 
1398	 8.28943507183118 
1399	 7.73873355298506 
1400	 2.78885509451148 
1401	 2.67690123977149 
1402	 4.05564422784462 
1403	 5.14264183585317 
1404	 12.3685330284501 
1405	 18.4451735188586 
1406	 17.9233141009762 
1407	 18.2557074541566 
1408	 17.7457720180062 
1409	 12.3872206909937 
1410	 10.2502829624011 
1411	 9.97765182662001 
1412	 8.636171282947 
1413	 9.24854681735451 
1414	 9.82997943845197 
1415	 10.1806242207252 
1416	 10.4078726911992 
1417	 9.56795584955808 
1418	 7.75948780696909 
1419	 4.94204396007718 
1420	 3.53543393111182 
1421	 3.46037574906361 
1422	 3.02757381994737 
1423	 3.72893853568537 
1424	 3.94120289098002 
1425	 2.04040079786134 
1426	 3.57561613953364 
1427	 5.15194353752962 
1428	 4.36791806084269 
1429	 5.56132536951902 
1430	 4.67921709723959 
1431	 6.04533843102394 
1432	 8.63877040306284 
1433	 9.44278222066167 
1434	 11.6535524669528 
1435	 11.3603635271737 
1436	 10.4753456996502 
1437	 10.2118881906448 
1438	 7.37415861347129 
1439	 3.3383575456788 
1440	 2.10951594114114 
1441	 0.653850134758718 
1442	-0.501442007787529 
1443	 3.92342503778187 
1444	 6.59878236128076 
1445	 6.76782228973613 
1446	 6.28844986170577 
1447	 5.83734902172075 
1448	 0.88106363726415 
1449	 0.62136785292753 
1450	 4.96451046672844 
1451	 5.14422063113542 
1452	 5.00712225261641 
1453	 3.56294442200629 
1454	 1.11480542376444 
1455	-9.52629027217561E-02 
1456	 2.58220122865237 
1457	 5.82146738207672 
1458	 9.81970151758145 
1459	 12.399729752014 
1460	 12.6185130196573 
1461	 12.1389539660251 
1462	 8.44120434391431 
1463	 4.97683404861794 
1464	 2.52395839652484 
1465	 4.60481310548019 
1466	 8.67743134556195 
1467	 9.98651123779235 
1468	 13.159736580929 
1469	 11.0690066442814 
1470	 4.91096480414563 
1471	 3.96052632674661 
1472	 3.46996559197529 
1473	 3.14813505661155 
1474	 7.32839619848446 
1475	 10.7269384168136 
1476	 10.877351066648 
1477	 9.42866399464094 
1478	 6.69331436468776 
1479	 3.82067246430522 
1480	 1.26340692215598 
1481	 0.937655728046498 
1482	 2.56955910108692 
1483	 4.10262113522646 
1484	 3.60066963746461 
1485	 2.10037286522135 
1486	 1.48383569064499 
1487	-8.84640976487773E-02 
1488	-1.35901017938547 
1489	-1.91431591283137 
1490	-4.02546544488058 
1491	-4.73281878131122 
1492	-2.05602624904279 
1493	 0.603641769573174 
1494	 4.19801766428222 
1495	 8.52442242733403 
1496	 9.87730084083058 
1497	 10.1358645799495 
1498	 10.8492294757719 
1499	 11.1121000325188 
1500	 9.93106115412961 
1501	 9.81967285805414 
1502	 9.13750139035188 
1503	 5.96547046388979 
1504	 4.85922772667657 
1505	 4.31356164540879 
1506	 2.98050158505211 
1507	 3.2910112125718 
1508	 2.85003619503105 
1509	 0.682459157228187 
1510	 1.91336349040594 
1511	 3.9492819874975 
1512	 5.30979362513177 
1513	 9.34132010313445 
1514	 11.8789191201748 
1515	 10.0585770175886 
1516	 7.5387890377129 
1517	 6.57837367512803 
1518	 4.20649912471151 
1519	 1.88475285984852 
1520	 1.77298645670408 
1521	 1.52843937021571 
1522	 2.5920715001417 
1523	 6.22063565778414 
1524	 7.83133098953421 
1525	 5.99854541022467 
1526	 2.97249971985746 
1527	 2.90159716547944 
1528	 7.35268997448394 
1529	 10.5502019440032 
1530	 13.8104174942177 
1531	 15.0978471258956 
1532	 11.8930104132147 
1533	 12.3440198172782 
1534	 12.6737640749473 
1535	 13.4916678901764 
1536	 17.4912443223065 
1537	 16.358131495847 
1538	 14.3992289021363 
1539	 12.2264487075163 
1540	 7.82647901286486 
1541	 5.755531528465 
1542	 6.3138466456349 
1543	 7.27167181012176 
1544	 7.40231764030955 
1545	 8.22226112748069 
1546	 7.9846596626203 
1547	 5.76670396792527 
1548	 3.88046233928436 
1549	 2.34864126321117 
1550	 0.77516624907011 
1551	 1.29309697466551 
1552	 1.81824825520646 
1553	 3.23990634841236 
1554	 6.55042283864202 
1555	 8.53509893263287 
1556	 9.91737513959531 
1557	 11.65207615149 
1558	 10.772338579422 
1559	 8.90068101950548 
1560	 10.8343616471044 
1561	 10.3476941379613 
1562	 9.99292124441415 
1563	 12.3816549988441 
1564	 11.9135892878406 
1565	 12.0407029518533 
1566	 11.9750002156773 
1567	 9.12360413278436 
1568	 8.78104555775172 
1569	 10.0339970181182 
1570	 10.6397598639795 
1571	 12.7596777527517 
1572	 12.8736348561016 
1573	 12.3441373260848 
1574	 13.4343279344166 
1575	 12.8133187030945 
1576	 11.0355692198092 
1577	 8.54299482662452 
1578	 5.83445297295773 
1579	 7.06286788405655 
1580	 7.83743516900295 
1581	 7.47386545653961 
1582	 8.13541777021853 
1583	 4.95533046042708 
1584	 3.23364137092844 
1585	 2.62473559182873 
1586	 0.436696664567789 
1587	-0.787411243678767 
1588	-0.683086825875553 
1589	 0.467713775683191 
1590	 1.11348810513349 
1591	 3.75686666401203 
1592	 2.04133852532782 
1593	-0.989911411775604 
1594	 2.00953907123694 
1595	 0.697306529053359 
1596	-0.561451688955312 
1597	 3.01238881291893 
1598	 2.70505534191026 
1599	 2.18103637384438 
1600	 3.81412945931792 
1601	 2.73475327721785 
1602	 2.35284327590532 
1603	 5.20817394118121 
1604	 7.6322552939302 
1605	 9.82586334636356 
1606	 11.6512154544721 
1607	 10.2463137241462 
1608	 10.0935660869803 
1609	 10.8606788958417 
1610	 9.03735404542404 
1611	 6.3255784516665 
1612	 3.68584971260788 
1613	 2.55007883855017 
1614	 4.53521279255857 
1615	 7.45663152951181 
1616	 6.40454801045159 
1617	 4.93449860519513 
1618	 3.85067570113031 
1619	 2.79710846932491 
1620	 4.60690864268521 
1621	 5.70639292686152 
1622	 6.00590916940214 
1623	 7.84686109328865 
1624	 10.0169494073862 
1625	 12.1993446753281 
1626	 13.1436306847914 
1627	 9.68941333426294 
1628	 5.80457753514809 
1629	 4.76162024447197 
1630	 4.97345985232617 
1631	 5.42718065011638 
1632	 5.02651052071365 
1633	 4.01454123672703 
1634	 2.32010247443273 
1635	 2.02392446381059 
1636	 3.57115326051228 
1637	 4.68653108591313 
1638	 6.37145918537258 
1639	 7.20135535113615 
1640	 8.40513425759948 
1641	 8.54556623337898 
1642	 5.48154383666638 
1643	 5.6403448512913 
1644	 8.28910350350053 
1645	 8.53019901599395 
1646	 10.5394752389326 
1647	 10.5192337119165 
1648	 6.09258483559371 
1649	 5.14526570564779 
1650	 5.38852673472319 
1651	 5.42365701923962 
1652	 6.8399275673028 
1653	 7.33297069174579 
1654	 7.5435819853362 
1655	 8.56209729477566 
1656	 10.4638667936024 
1657	 10.636018523488 
1658	 8.40788176014292 
1659	 9.46470884184877 
1660	 13.0615108755517 
1661	 12.9855565626614 
1662	 13.7060861993931 
1663	 13.3654387321164 
1664	 8.42436722710753 
1665	 6.38791085029219 
1666	 6.30219289241804 
1667	 6.03373282685509 
1668	 4.81461989796681 
1669	 6.42728871468075 
1670	 11.9655047085858 
1671	 12.5992908147943 
1672	 12.3630492425944 
1673	 11.3680700355203 
1674	 6.74368964542293 
1675	 5.52483511385887 
1676	 5.75536302241472 
1677	 6.07594037705353 
1678	 6.84799292744387 
1679	 8.29922673435657 
1680	 12.0391930288148 
1681	 10.1492564710391 
1682	 5.98799678559629 
1683	 2.20885710840071 
1684	-1.12011975723614 
1685	 2.29818723474015 
1686	 5.05733475675002 
1687	 2.85577811104562 
1688	 2.01007117078684 
1689	-1.67940477109684 
1690	-3.03390400795269 
1691	-0.385194615325219 
1692	 0.173024646968642 
1693	 0.269481435123695 
1694	 0.156260733656259 
1695	-2.21607043011321 
1696	-2.28215702436208 
1697	-8.02793097246826E-02 
1698	 0.516177336592841 
1699	 0.982092585222922 
1700	 2.09825982008654 
1701	 2.6035290596435 
1702	 3.2582180905434 
1703	 5.55485578977311 
1704	 6.28130521498032 
1705	 6.4436429885377 
1706	 4.98801206565502 
1707	 0.685152968732467 
1708	-0.229584501621696 
1709	-0.729787381024955 
1710	-1.07744388222565 
1711	 0.609992704229252 
1712	 2.29497393616512 
1713	 3.98952176702128 
1714	 4.70955433532352 
1715	 6.16901745454428 
1716	 7.13961686476086 
1717	 6.78276934523779 
1718	 5.81721566071434 
1719	 5.21405236348159 
1720	 4.31177213952208 
1721	 0.519715019498811 
1722	 1.51643107248722 
1723	 5.78653353625776 
1724	 7.46330419707462 
1725	 11.6663690889912 
1726	 6.88062557612537 
1727	 2.07696438348961 
1728	-1.90527156146352 
1729	-7.04576953190744 
1730	-5.57655872173062 
1731	-2.68505041247273 
1732	 1.4956008007023 
1733	 3.00470338621677 
1734	 1.89195112985375 
1735	 2.86813614345036 
1736	 5.06864742905172 
1737	 4.99613141921509 
1738	 4.9754943343265 
1739	 4.2726037572294 
1740	-0.623852240601839 
1741	-1.94887896028176 
1742	-0.347132224538069 
1743	-0.383295052986455 
1744	-0.163066020712709 
1745	 0.256877843909818 
1746	 0.536516095197206 
1747	 0.664016158957215 
1748	 1.21430307339895 
1749	 1.1342495138636 
1750	 0.390902026730707 
1751	-0.366153604721791 
1752	-1.66738208949308 
1753	-1.16649604854456 
1754	-0.022452117937468 
1755	 1.82970245993564 
1756	 2.69399616479956 
1757	-6.04887601839059 
1758	-3.16226065658963 
1759	-5.77527906156498 
1760	-17.8813813898258 
1761	-20.7544390944704 
1762	-14.6202654234234 
1763	-5.87540132632657 
1764	 1.55440514753968 
1765	 21.0505524348387 
1766	 21.5609146490317 
1767	 6.11876197521763 
1768	 2.78892002628723 
1769	-3.01870111882056 
1770	-13.96188556676 
1771	-5.91698905481268 
1772	 10.6745135229763 
1773	 15.7205738269869 
1774	 23.9204074188064 
1775	 20.0041350130424 
1776	-3.72926689106674 
1777	-8.71627280531426 
1778	-15.4954070079169 
1779	-10.6351454706026 
1780	 4.89705668639977 
1781	 3.28529388727793 
1782	 13.6277222183167 
1783	 11.8866915418642 
1784	 7.12592770089776 
1785	-4.014324789096 
1786	 6.43047211621805 
1787	 3.6344691951387 
1788	-0.968470270777358 
1789	 0.112709454124908 
1790	 4.46409512216357 
1791	 6.70800885202691 
1792	 6.4986362468453 
1793	 4.2875732226431 
1794	 7.07590172151559 
1795	 9.57408255680479 
1796	 13.5229163965073 
1797	 13.352228266899 
1798	 21.8576048813716 
1799	 21.0118729324186 
1800	 11.6370807457621 
1801	 10.2485631440502 
1802	 6.89890105077523 
1803	 8.02127413524795 
1804	 13.6600854992622 
1805	 18.418721414672 
1806	 28.7115190324617 
1807	 34.0589493566039 
1808	 27.478285426696 
1809	 17.5782002129432 
1810	 2.81610581901825 
1811	-12.4419575826962 
1812	-14.8694643290644 
1813	-3.09788463868549 
1814	-0.539646913635168 
1815	 12.0383754656811 
1816	 14.9215068140325 
1817	 5.66424470928962 
1818	 3.92575178892535 
1819	 10.792830866436 
1820	-11.1655248661311 
1821	-15.1794787170735 
1822	-15.8157681701474 
1823	-13.853953572027 
1824	-1.10480820682273 
1825	 0.302733344587745 
1826	-3.35298088170605 
1827	-4.81305243709417 
1828	-8.54932920389183 
1829	-23.5583214247946 
1830	-20.4462089054617 
1831	-4.91374494161276 
1832	 2.15778935066743 
1833	 19.0864462955592 
1834	 21.155306939926 
1835	 7.12500447433445 
1836	 4.91555718893867 
1837	-0.447437732116138 
1838	-1.81051425024279 
1839	 6.57774159098587 
1840	 11.9160896577324 
1841	 17.9977405346367 
1842	 30.5199435815848 
1843	 28.3923576453384 
1844	 14.2488806803145 
1845	 12.0689296420364 
1846	 5.61166162776271 
1847	 0.80488260320004 
1848	 5.25549067336255 
1849	 10.6935700777294 
1850	-3.12249655253359 
1851	-11.1227727045956 
1852	-8.32618006988078 
1853	 1.39932973817276 
1854	 9.16757770946758 
1855	 35.2606138686517 
1856	 39.4164736265221 
1857	 31.1364218403957 
1858	 22.2596678936518 
1859	 7.94000347397143 
1860	-7.71263905166129 
1861	-6.59403696513977 
1862	 4.47845394895403 
1863	 5.11329558392269 
1864	 9.80346608003849 
1865	 10.0864287619706 
1866	 0.209716528509486 
1867	-5.8526176959093 
1868	-8.97137046318255 
1869	-14.1597631423763 
1870	-20.7670952587072 
1871	-34.4241526784985 
1872	-38.3127255165312 
1873	-29.7109315195657 
1874	-16.9651025098648 
1875	 5.55601494889712 
1876	 19.6408458657315 
1877	 36.1089085078653 
1878	 38.000691543714 
1879	 31.4631330534805 
1880	 17.7701304539944 
1881	 1.30338552912383 
1882	 0.451852609685726 
1883	 2.23823027024926 
1884	 6.50702429476058 
1885	 11.1170174936424 
1886	 5.71531536820552 
1887	 1.93706523107497 
1888	-2.21928123397701 
1889	-10.4246926449161 
1890	-17.5139620307059 
1891	-32.3046338254339 
1892	-49.7567735819942 
1893	-60.8720086154497 
1894	-67.810895682523 
1895	-55.014849170393 
1896	-40.9659874078524 
1897	-28.6500617614213 
1898	-5.68577935798928 
1899	 4.89703416181512 
1900	 9.1643495946652 
1901	 10.1816824758646 
1902	 8.09272467088543 
1903	 3.35473204962369 
1904	-3.74827594040983 
1905	 3.34136337588383 
1906	 9.77440302017548 
1907	 12.0771281367908 
1908	 10.4376795737865 
1909	 1.95159035339685 
1910	-4.05961452035213 
1911	-16.988380309069 
1912	-18.7330579405019 
1913	-11.535592914468 
1914	-5.41319859916293 
1915	-1.39469891127536 
1916	-2.32670576618009 
1917	-17.3889891091406 
1918	-25.6551524337107 
1919	-26.759995460968 
1920	-24.1337150250573 
1921	-21.35007042482 
1922	-6.04912848040399 
1923	-1.68476792998523 
1924	-4.94263092597855 
1925	-2.67507552278337 
1926	 1.7379130258367 
1927	-3.42415995006458 
1928	 1.46324740588987 
1929	 14.9793859413468 
1930	 18.1065361076495 
1931	 18.685645645102 
1932	 21.8674190214092 
1933	 23.8844667101496 
1934	 19.4083133723618 
1935	 9.67747919020222 
1936	 6.7871517866678 
1937	-2.86769401068725 
1938	-4.21722207049724 
1939	 1.62193926902406 
1940	 18.5417756905855 
1941	 25.9448891090037 
1942	 32.5957205144008 
1943	 38.3790576598671 
1944	 42.0751328710368 
1945	 45.4194567831196 
1946	 53.0797508690112 
1947	 50.4224840358654 
1948	 38.3850560407907 
1949	 32.0143050068333 
1950	 20.3281254692988 
1951	 11.9968128019739 
1952	 5.39222620572111 
1953	 5.17905379963946 
1954	 3.00713370172477 
1955	-0.290411626195293 
1956	-1.3608574313857 
1957	 2.70561307225978 
1958	 1.84934301280382 
1959	-2.76322609717783 
1960	-3.22319548479602 
1961	-7.50635971807687 
1962	-4.16046685414168 
1963	 6.78763888356294 
1964	 16.2743595813744 
1965	 36.4674022753038 
1966	 47.0902984003971 
1967	 49.2665575949827 
1968	 47.3273092374015 
1969	 38.6094383115841 
1970	 11.7888024053516 
1971	 0.847782014855793 
1972	-5.44063146655125 
1973	-15.1515203963624 
1974	-22.8199015915499 
1975	-27.8988647425391 
1976	-41.9116940280354 
1977	-42.9309720072352 
1978	-32.5151314001735 
1979	-20.1157121421503 
1980	-7.29836991200389 
1981	 15.4746540524424 
1982	 22.6487808794124 
1983	 25.5293453076638 
1984	 25.1253559817662 
1985	 11.5493894112195 
1986	 10.8141353434943 
1987	 15.8215775738148 
1988	 15.2555600210324 
1989	 21.9123886261617 
1990	 20.0984338936216 
1991	 6.41085257230065 
1992	-4.52247723290143 
1993	 2.8271165034055 
1994	-8.60900403260016 
1995	-6.71239531778983 
1996	 8.28700464774024 
1997	 12.1025782606837 
1998	 15.7578244160931 
1999	 16.6901130408279 
2000	 15.2988850745356 
2001	 10.0490410101763 
2002	-6.24330952119712 
2003	-14.054116437188 
2004	-24.3755471750761 
2005	-27.8820510243142 
2006	-18.8473355432184 
2007	-3.60571499798226 
2008	 8.36773489994055 
2009	 19.9310920351863 
2010	 26.8234132501601 
2011	 27.6348985102387 
2012	 30.9426314923843 
2013	 34.7755309086121 
2014	 34.8713635162364 
2015	 32.3363004979823 
2016	 27.1648195204497 
2017	 14.0094395211525 
2018	 9.53782518310779 
2019	 0.974632634868813 
2020	 13.0559417978844 
2021	 18.5724951615017 
2022	 24.3521898968344 
2023	 24.7554872866278 
2024	 8.28792132830613 
2025	-1.48303206076248 
2026	-15.9673412736143 
2027	-28.1018599840967 
2028	-38.9759907350905 
2029	-44.4934995603715 
2030	-53.434471924473 
2031	-50.9951473296981 
2032	-35.2413038986029 
2033	-30.6627745625979 
2034	-16.4522461959419 
2035	 4.10658642739232 
2036	 13.2796575688536 
2037	 21.442919652883 
2038	 17.8733602181267 
2039	 7.47214986908518 
2040	 3.42630057547316 
2041	-1.71175327488987 
2042	-5.80810992846367 
2043	-6.50074817037829 
2044	-4.50905287749981 
2045	-2.81140218106297 
2046	-0.628268113246517 
2047	 6.07193936433784 
2048	 8.05504747342212 
2049	 6.90749498603824 
2050	 9.58009140709084 
2051	 1.57192801384859 
2052	 1.32109040147635 
2053	 0.111590475285467 
2054	-9.40090902215269 
2055	-7.23247257977965 
2056	 0.945271459667999 
2057	 5.45476417496082 
2058	 6.7262541652105 
2059	 9.49003859369264 
2060	 11.6545403888352 
2061	 14.6835611260849 
2062	 22.1848833869339 
2063	 23.9515190341125 
2064	 28.6424729735422 
2065	 13.1486801257104 
2066	 1.49288752461886 
2067	-6.5025538011774 
2068	-13.9186366939292 
2069	-0.644708387546244 
2070	 7.89831337891426 
2071	 10.1892030155107 
2072	 5.39958721555531 
2073	-11.2945323720716 
2074	-21.8235669228115 
2075	-35.6259044530802 
2076	-35.4173273710254 
2077	-17.9485547153462 
2078	-9.15904926982962 
2079	 4.64212906848686 
2080	 16.8262733678071 
2081	 28.5565085719147 
2082	 33.2103600203247 
2083	 36.1969344987401 
2084	 43.6607957974796 
2085	 43.5395244886 
2086	 39.8384659745893 
2087	 42.3043326554523 
2088	 34.4822288475976 
2089	 25.8500760382298 
2090	 23.4663695254246 
2091	 12.1036046329193 
2092	 5.02045197923836 
2093	 2.74930301905767 
2094	-8.42102143621397 
2095	-13.5512999304389 
2096	-14.3972158192196 
2097	-15.2982443261613 
2098	-15.7283681909281 
2099	-11.3869408440081 
2100	-9.96236510840512 
2101	-10.7148207689439 
2102	-13.3182970868782 
2103	-14.1422109750462 
2104	-19.2888607413381 
2105	-25.2486473915829 
2106	-31.4897297584034 
2107	-36.3226626536787 
2108	-27.7386220945115 
2109	-10.290758042965 
2110	 4.35717344168584 
2111	 11.2136148823612 
2112	 7.40385171646351 
2113	-10.5360237044407 
2114	-17.5400821827729 
2115	-24.5449776170704 
2116	-21.9110889850632 
2117	-4.80413272909937 
2118	 4.64162138646831 
2119	 18.8829400983636 
2120	 18.0319003411505 
2121	 16.0278925628541 
2122	 9.77516487264508 
2123	-4.30325295068133 
2124	-3.70674818387152 
2125	 1.71007653724257 
2126	 2.64465381275612 
2127	 11.7561177815329 
2128	 10.0700987638809 
2129	-2.41034424705654 
2130	-1.98655883260496 
2131	-3.06656358777859 
2132	-6.97961689656103 
2133	-1.76704507854046 
2134	-1.65168220554756 
2135	-1.46633897047527 
2136	 1.64381565013228 
2137	-2.10717929410817 
2138	-12.3543822678572 
2139	-16.5738897914648 
2140	-24.2676993730312 
2141	-24.8071570817215 
2142	-24.2610018035239 
2143	-23.7336405673155 
2144	-28.2589029129691 
2145	-28.1969993822104 
2146	-14.3381721811028 
2147	-4.84794295032288 
2148	-1.15867888275772 
2149	-1.72326095593788 
2150	-18.2201762447817 
2151	-39.2438100163073 
2152	-48.920270818885 
2153	-61.8697618781152 
2154	-52.8512699135499 
2155	-35.9519737662527 
2156	-19.3281526334862 
2157	 6.9231732088808 
2158	 17.2133055686747 
2159	 14.9366195242085 
2160	 18.0886709507705 
2161	 13.5123511211253 
2162	 10.6086059601824 
2163	 12.3579121528494 
2164	 6.23261047180817 
2165	-3.32650297976981 
2166	-12.5447186538147 
2167	-20.372126980056 
2168	-18.6238749808157 
2169	-20.2143892457913 
2170	-19.1478716138218 
2171	-8.33288787953182 
2172	-8.69031092570044 
2173	 3.04064553190625 
2174	 20.1307024866375 
2175	 16.8595168390552 
2176	 14.6132725997803 
2177	 9.59348935743552 
2178	-3.86674870905225 
2179	-3.90573859610852 
2180	 2.23770731850815 
2181	 10.878939806245 
2182	 24.538726745295 
2183	 25.648978213604 
2184	 16.5252641256992 
2185	 13.5881226643334 
2186	 0.760541534741181 
2187	-4.36881896063313 
2188	-3.95998329094658 
2189	 1.82592135015917 
2190	 12.1088577397234 
2191	 17.3426520633782 
2192	 19.3499869656964 
2193	 22.0484814937689 
2194	 10.7033478264156 
2195	 0.282755579292651 
2196	-8.04221492929046 
2197	-20.0846042457816 
2198	-25.3699372929033 
2199	-23.4570827950502 
2200	-22.2761496991648 
2201	-12.8572459673322 
2202	-6.89896035762762 
2203	-14.7069823429677 
2204	-15.3482723780171 
2205	-17.2990133072441 
2206	-23.701898598693 
2207	-17.0662010647042 
2208	-10.687780186479 
2209	-13.7598894148411 
2210	-16.718811000342 
2211	-23.7252518558077 
2212	-30.0839378429437 
2213	-41.660251434954 
2214	-43.1862965268767 
2215	-37.7712403309448 
2216	-28.0106056548321 
2217	-12.8939287004342 
2218	 2.12086721999477 
2219	 25.5378575255982 
2220	 35.7054787769295 
2221	 39.3030216131265 
2222	 41.0510722037844 
2223	 26.5669389222994 
2224	 18.5737483867476 
2225	 9.71845721891809 
2226	 5.22889064723193 
2227	 9.96629980041488 
2228	 0.918678225903869 
2229	-0.611461790477649 
2230	-7.80232704983958 
2231	-12.4530142546581 
2232	-10.6780530036788 
2233	-12.765234885007 
2234	-10.3643257675296 
2235	-19.6719784484642 
2236	-30.1333527636638 
2237	-34.4335200387011 
2238	-36.4889875799117 
2239	-33.0142001439637 
2240	-31.7948291455401 
2241	-32.5941759354796 
2242	-30.0149802345246 
2243	-30.0529017813139 
2244	-27.3206868556368 
2245	-24.8054107486015 
2246	-31.7094550127464 
2247	-29.0882458395714 
2248	-21.0456373839473 
2249	-13.2467317261691 
2250	 5.50152827414366 
2251	 13.1432896110682 
2252	 19.6139039183907 
2253	 19.4411755278115 
2254	 3.2545350101216 
2255	 1.35715805503445 
2256	 4.64435854745091 
2257	 3.2880135341285 
2258	 5.98230033285912 
2259	 13.5136964809273 
2260	 18.7764477975659 
2261	 14.1241317263357 
2262	 11.5183773920327 
2263	 12.0371475186635 
2264	-1.63066756468643 
2265	-6.88643250902602 
2266	-1.04805086951876 
2267	-4.56400078389537 
2268	 6.97710607190833 
2269	 24.4675040332963 
2270	 23.2698753663881 
2271	 31.3557810677447 
2272	 34.1056854249852 
2273	 25.5084456482808 
2274	 33.9338604342876 
2275	 35.2001028956648 
2276	 26.5734589532261 
2277	 18.2620304746198 
2278	 0.856930688595223 
2279	-14.8336262543657 
2280	-14.047242659817 
2281	-9.51711673884124 
2282	-11.3187197211332 
2283	-9.73320153481824 
2284	-15.4925755933838 
2285	-25.1100848150765 
2286	-27.4773364415586 
2287	-24.6902764959086 
2288	-23.4738023298839 
2289	-14.751604695918 
2290	-14.8010395485423 
2291	-16.8841948600084 
2292	-19.4325256636523 
2293	-35.8745804868589 
2294	-38.1293251069551 
2295	-30.9934194842789 
2296	-29.6765734398551 
2297	-21.8531036650905 
2298	-18.2338862493852 
2299	-24.9616392862435 
2300	-19.0488655874244 
2301	-0.36087880704576 
2302	 6.61340859319044 
2303	 16.5721788555982 
2304	 16.324564074528 
2305	-0.753799517620287 
2306	-9.08447205730917 
2307	-19.0285086742255 
2308	-20.7577355797288 
2309	-16.4739391547219 
2310	-9.76620150991585 
2311	-9.63945627484735 
2312	-22.7612938444229 
2313	-30.6213745320699 
2314	-44.9682309824078 
2315	-44.2308040613227 
2316	-24.3043408707592 
2317	-21.122452511247 
2318	-12.4360113839651 
2319	-7.08347453177671 
2320	-10.5709858959 
2321	-3.17412328851058 
2322	-7.54459749528189 
2323	-13.109130265181 
2324	-12.7350565139675 
2325	-21.2975630577445 
2326	-17.7895023531823 
2327	-11.5209359880474 
2328	-18.4588242479396 
2329	-13.7186795260181 
2330	-15.4414432395651 
2331	-20.0186390638344 
2332	-9.51181830093743 
2333	-9.14699989660041 
2334	-7.87989975786275 
2335	 0.210568932477951 
2336	-2.03933185448713 
2337	 2.83014452284379 
2338	 12.1811589882666 
2339	 8.52098246733366 
2340	 5.97053805904734 
2341	-2.13439670273821 
2342	-11.6246871110704 
2343	-6.52506188283775 
2344	-4.35792620753707 
2345	-6.27536848860303 
2346	-4.5525704972974 
2347	-15.3022385189445 
2348	-23.9859523619389 
2349	-24.4209967324109 
2350	-21.6486772643936 
2351	-12.2904795288589 
2352	-0.243499741249325 
2353	 27.7196887036932 
2354	 43.8569479567114 
2355	 51.6119428895788 
2356	 61.9045161504815 
2357	 44.1432134538506 
2358	 21.5213428079295 
2359	 3.55008539436459 
2360	-23.4059502980006 
2361	-40.1571413898755 
2362	-40.5760843263895 
2363	-46.7919992181294 
2364	-44.2777633279534 
2365	-37.0718163841182 
2366	-42.6396256913291 
2367	-41.4798396594766 
2368	-44.7001675457812 
2369	-37.5547523441745 
2370	-32.3067687869247 
2371	-35.2534023643414 
2372	-17.5781771388929 
2373	-11.1775397459825 
2374	-10.707439278768 
2375	 0.95617227499239 
2376	 10.1239987934825 
2377	 18.5315214736685 
2378	 30.378786686734 
2379	 39.557442165323 
2380	 36.3153068068734 
2381	 26.0848348007534 
2382	 19.6438054326716 
2383	 10.4020309396076 
2384	-4.7345070278717 
2385	-12.2000424024704 
2386	-21.7398981368589 
2387	-36.2852198927895 
2388	-38.9720296892509 
2389	-36.5543021379654 
2390	-31.2536336795683 
2391	-25.5177250813129 
2392	-21.6368561217191 
2393	-14.7962782524266 
2394	-1.8489479418335 
2395	 9.42029786046935 
2396	 17.3814645341763 
2397	 18.2397683157242 
2398	 6.28122844283051 
2399	 3.49286967328038 
2400	-3.22233907547386 
2401	-14.0750637781201 
2402	-23.8609884413097 
2403	-39.9207661013818 
2404	-41.1829996338772 
2405	-34.180177255797 
2406	-21.7098744969375 
2407	-9.37002426745183 
2408	-3.88783411730491 
2409	 4.2314092494546 
2410	-0.400799602288157 
2411	-7.51912109377821 
2412	-4.32161922820584 
2413	-10.2846167141997 
2414	-11.8162097843834 
2415	-9.22990251855664 
2416	-14.6351111795745 
2417	-11.1098808021727 
2418	-2.57849213450393 
2419	 9.20782196246593 
2420	 21.7019800672094 
2421	 33.3290789133506 
2422	 35.8435562287479 
2423	 26.0548150186877 
2424	 20.8945191304026 
2425	 0.598043021560347 
2426	-15.9393598944834 
2427	-11.6055679071063 
2428	-11.3367698200416 
2429	 1.33124190375536 
2430	 15.0607323401534 
2431	 12.2667824349538 
2432	-0.142987272072206 
2433	-17.0849055150411 
2434	-24.855941678329 
2435	-33.2630211100112 
2436	-29.5262771355831 
2437	-13.2440994322345 
2438	-12.0126789503838 
2439	-3.3205684365806 
2440	 10.9017927213378 
2441	 10.5073221648616 
2442	 17.0440243894601 
2443	 21.0753130121292 
2444	 8.92160598326373 
2445	 2.65702621761798 
2446	-4.69370027326936 
2447	-13.1519148464711 
2448	-13.5331983030112 
2449	-13.1913078352298 
2450	-8.37788824806027 
2451	-12.0442011374087 
2452	-19.2072826791356 
2453	-19.7532817707041 
2454	-27.1920975218563 
2455	-19.7205375347558 
2456	-8.23741643384668 
2457	-10.1451195233962 
2458	-5.91086580588638 
2459	-9.35402971097927 
2460	-9.78491567877484 
2461	-7.47973781927925 
2462	-15.073203722768 
2463	-23.2179627696857 
2464	-32.2374492950105 
2465	-44.9856209198551 
2466	-47.7171387042889 
2467	-48.995125464484 
2468	-42.5256777755263 
2469	-33.2984427704022 
2470	-30.2318258850436 
2471	-24.2762655240531 
2472	-23.6406773785666 
2473	-9.25581093005034 
2474	-4.85274935297903 
2475	-5.76209596528322 
2476	-5.38842076702501 
2477	-16.8773138531364 
2478	-22.8171214315923 
2479	-29.6550390907542 
2480	-30.5417343195088 
2481	-34.5584575598322 
2482	-35.2101036064602 
2483	-34.9013243460042 
2484	-39.8312969434492 
2485	-37.5802965211589 
2486	-41.413235186233 
2487	-31.3987592251921 
2488	-19.1066601022653 
2489	-16.5337123936048 
2490	-14.7613838821607 
2491	-23.2574289845409 
2492	-28.3237498093704 
2493	-29.2683124969034 
2494	-25.3314766054138 
2495	-17.9591320359163 
2496	-15.2860731565269 
2497	-10.1782316470714 
2498	-7.16667084542364 
2499	-3.79512823725007 
2500	 2.01559445104759 
