Wavelength	reference_blackTPU00000.asd
350	 19.0851811304393 
351	 20.6184809873364 
352	 22.5734395509815 
353	 22.9849333126665 
354	 23.828658560916 
355	 25.3958201841215 
356	 27.4103121484058 
357	 28.9580500860004 
358	 29.457267197003 
359	 29.4781141941089 
360	 30.5726117014803 
361	 32.4563221689568 
362	 33.9073223813073 
363	 34.0610534482305 
364	 34.4088005334335 
365	 35.9393017853821 
366	 38.1240895511125 
367	 38.4902138608369 
368	 40.3935811150614 
369	 41.7105706553144 
370	 39.6252752627002 
371	 39.2538126778453 
372	 40.183675402218 
373	 41.6374018889944 
374	 43.0703924264348 
375	 44.9291503288448 
376	 46.5848083455473 
377	 47.0767334599025 
378	 48.2312573680608 
379	 50.066383504221 
380	 52.2162674783333 
381	 54.1699193267318 
382	 55.8433156202143 
383	 57.5940945501703 
384	 60.1615402166191 
385	 62.2093715064399 
386	 64.0199651083614 
387	 66.4458932064061 
388	 70.9316727557753 
389	 75.7645817348016 
390	 79.8018373838611 
391	 82.7052434382554 
392	 87.2797162286494 
393	 93.3534546502029 
394	 99.3913954850541 
395	 104.209626853851 
396	 110.035406431789 
397	 118.181813688643 
398	 126.54633899136 
399	 136.071873874357 
400	 146.192143510221 
401	 155.295877575818 
402	 166.207567357797 
403	 179.149554578306 
404	 193.543093820976 
405	 208.417031646344 
406	 224.164803294734 
407	 241.546597356358 
408	 261.998399999026 
409	 282.910616199873 
410	 304.106729399527 
411	 326.466142368517 
412	 350.355972801043 
413	 375.088096292893 
414	 400.429674036157 
415	 428.095957461926 
416	 455.294178386959 
417	 482.297239648963 
418	 512.068671438034 
419	 540.528455233218 
420	 568.506719098778 
421	 597.381762086393 
422	 623.435828747044 
423	 649.436234106045 
424	 676.86474249878 
425	 704.541965449877 
426	 729.286604767877 
427	 752.152927690264 
428	 776.491712061043 
429	 799.665239409509 
430	 822.079966027302 
431	 844.317466882776 
432	 865.585065386774 
433	 886.117122038915 
434	 906.041471218258 
435	 925.463453061471 
436	 941.447592687298 
437	 957.063641321122 
438	 976.745187466334 
439	 993.731254854259 
440	 1008.300918765 
441	 1022.31625517057 
442	 1039.79174513085 
443	 1054.98876377818 
444	 1068.06111318024 
445	 1084.44190819478 
446	 1100.28907022089 
447	 1114.88191083648 
448	 1128.51975501635 
449	 1142.23360661307 
450	 1156.44737928922 
451	 1170.70331167055 
452	 1182.36505191904 
453	 1196.06323782208 
454	 1211.61757168775 
455	 1225.6939033096 
456	 1241.03715123935 
457	 1255.43684215371 
458	 1267.27059240655 
459	 1283.22407944777 
460	 1299.99137971873 
461	 1315.66554216404 
462	 1331.35394535608 
463	 1348.6924371059 
464	 1367.36583925987 
465	 1385.93355056027 
466	 1404.91143594148 
467	 1425.12343799608 
468	 1446.89909512925 
469	 1468.18566350661 
470	 1490.72824197195 
471	 1514.82672116158 
472	 1538.2764718816 
473	 1563.77475153368 
474	 1590.80738563588 
475	 1617.60513560926 
476	 1647.06942623414 
477	 1677.40320690078 
478	 1706.99151879635 
479	 1737.74866097272 
480	 1769.97284625822 
481	 1803.4444667362 
482	 1837.30455379841 
483	 1870.87605140985 
484	 1906.43911396215 
485	 1946.91929278305 
486	 1984.68953343776 
487	 2023.45553501988 
488	 2066.42064672273 
489	 2108.53947166463 
490	 2152.79997030279 
491	 2199.79445304285 
492	 2247.12542981168 
493	 2292.90664557483 
494	 2340.03200254281 
495	 2392.78163812997 
496	 2443.46793822468 
497	 2495.39742981532 
498	 2551.02982655332 
499	 2603.90648728171 
500	 2659.3801934771 
501	 2718.04319060047 
502	 2774.2432556453 
503	 2831.31767275362 
504	 2890.48161267642 
505	 2951.95961453302 
506	 3012.63575805534 
507	 3073.73521653144 
508	 3136.78322489541 
509	 3201.9251865392 
510	 3268.0887667985 
511	 3334.23611810256 
512	 3398.90059922679 
513	 3468.05686705933 
514	 3540.58955766498 
515	 3612.44427465781 
516	 3686.64933446448 
517	 3760.22818748041 
518	 3831.60754071554 
519	 3907.81818607969 
520	 3983.07528134609 
521	 4056.71943141478 
522	 4136.01038784412 
523	 4214.22919888723 
524	 4291.57387582498 
525	 4371.10352119738 
526	 4450.56109837464 
527	 4530.48434804488 
528	 4611.11072691461 
529	 4689.39785608919 
530	 4768.07399663105 
531	 4848.414316094 
532	 4929.63356313072 
533	 5008.72422423888 
534	 5085.75110544133 
535	 5162.62451549058 
536	 5241.28048232791 
537	 5319.17717116688 
538	 5393.82161301935 
539	 5467.32299687442 
540	 5541.94404366929 
541	 5617.48407192001 
542	 5689.05248426043 
543	 5760.66195584924 
544	 5831.75198847776 
545	 5899.3078397537 
546	 5968.25195573335 
547	 6037.391530779 
548	 6104.64282207946 
549	 6171.84230189743 
550	 6237.6975033352 
551	 6301.59016136627 
552	 6364.58307000521 
553	 6427.01628137229 
554	 6487.81550079158 
555	 6544.72856619641 
556	 6600.96335370636 
557	 6656.40037286546 
558	 6709.78030091315 
559	 6759.10602428178 
560	 6806.65826154901 
561	 6852.70542961769 
562	 6891.74381015916 
563	 6924.89262985717 
564	 6952.41412171471 
565	 6973.96628079153 
566	 6991.3033952459 
567	 7002.63880892695 
568	 7005.63067596834 
569	 7005.02369275481 
570	 6997.61624810111 
571	 6982.73896999206 
572	 6970.41805187632 
573	 6954.19655325053 
574	 6932.21742329854 
575	 6908.07693996846 
576	 6877.05014168431 
577	 6840.18795123877 
578	 6800.62513133953 
579	 6754.60942112535 
580	 6706.39608110066 
581	 6659.76991240114 
582	 6610.53386468929 
583	 6570.44971033293 
584	 6540.11527557512 
585	 6502.82928148271 
586	 6463.43043054976 
587	 6422.54448276558 
588	 6380.12238084237 
589	 6344.84538632267 
590	 6316.03999665821 
591	 6292.05472886769 
592	 6278.26102698244 
593	 6268.87926326998 
594	 6260.36627633168 
595	 6252.85272662623 
596	 6254.96556509955 
597	 6270.69797842506 
598	 6300.71127779809 
599	 6330.54553958423 
600	 6360.35438738071 
601	 6394.26032821044 
602	 6433.13649999287 
603	 6470.13363187882 
604	 6503.06832300637 
605	 6541.96013639633 
606	 6582.24287426451 
607	 6628.7796119624 
608	 6695.38189523626 
609	 6768.80310510041 
610	 6850.75859314257 
611	 6945.41549392891 
612	 7036.90734646334 
613	 7124.78833328497 
614	 7209.15189503553 
615	 7283.70776652034 
616	 7357.18163674804 
617	 7431.55935423435 
618	 7500.35902699802 
619	 7571.66623626239 
620	 7646.99344017635 
621	 7724.78114633236 
622	 7800.64727654334 
623	 7878.78736393704 
624	 7962.22665632543 
625	 8044.20859262305 
626	 8122.70061056403 
627	 8197.92288714823 
628	 8273.92199476159 
629	 8345.36048443675 
630	 8411.19762150207 
631	 8472.75282189574 
632	 8533.69136321016 
633	 8591.11216522031 
634	 8642.41165828139 
635	 8694.45703680682 
636	 8746.09209477698 
637	 8795.20400200402 
638	 8837.59731322869 
639	 8882.94273648314 
640	 8931.14574659266 
641	 8975.0791840121 
642	 9027.684927959 
643	 9082.73825649687 
644	 9131.09099884116 
645	 9183.98826809237 
646	 9238.50198137656 
647	 9292.83450431693 
648	 9352.05033662883 
649	 9409.70598751002 
650	 9466.22524470463 
651	 9528.81468016896 
652	 9591.51492507227 
653	 9656.66495959054 
654	 9728.12143245658 
655	 9796.52936473111 
656	 9863.59872315718 
657	 9932.1423655443 
658	 10003.0090558497 
659	 10076.9300050862 
660	 10153.8803653149 
661	 10233.1009874394 
662	 10311.7509543354 
663	 10389.4176633975 
664	 10467.1173170592 
665	 10547.9394790029 
666	 10627.9846126169 
667	 10705.4857835097 
668	 10791.9077182637 
669	 10881.7750366544 
670	 10971.9770354946 
671	 11063.4405794917 
672	 11158.429368834 
673	 11255.0128638459 
674	 11349.1642294231 
675	 11449.1209190831 
676	 11550.3632234507 
677	 11648.6883507913 
678	 11756.2220616753 
679	 11864.019226702 
680	 11967.9766939232 
681	 12075.1335727697 
682	 12183.7736922703 
683	 12292.9077264048 
684	 12401.685637867 
685	 12513.1316698232 
686	 12627.0525589332 
687	 12742.1601264349 
688	 12856.6390045068 
689	 12971.479992562 
690	 13087.221471555 
691	 13203.0647157305 
692	 13317.2350182542 
693	 13430.1800359162 
694	 13544.3412798103 
695	 13652.4710522165 
696	 13757.9486428146 
697	 13866.1076054704 
698	 13969.6478901074 
699	 14071.8077177908 
700	 14174.0141303683 
701	 14269.7316303975 
702	 14364.8365296393 
703	 14458.1972237788 
704	 14541.4621905729 
705	 14627.0058109932 
706	 14711.2356412528 
707	 14786.4021098744 
708	 14861.2788987397 
709	 14934.7824578085 
710	 15005.1203981984 
711	 15072.6193784454 
712	 15134.4776539228 
713	 15191.5590126493 
714	 15249.0692153639 
715	 15304.1041823904 
716	 15356.7882021504 
717	 15408.5198976204 
718	 15463.1359137341 
719	 15514.6664931531 
720	 15559.227866102 
721	 15604.2944952869 
722	 15645.8085916563 
723	 15684.6153854584 
724	 15728.1085552637 
725	 15769.9794678546 
726	 15812.5157954207 
727	 15860.1876832314 
728	 15900.7859333673 
729	 15939.7079658773 
730	 15981.8923342414 
731	 16019.9019946179 
732	 16062.0228859093 
733	 16108.3831222919 
734	 16148.0355436143 
735	 16184.9563497157 
736	 16221.0727746254 
737	 16257.212760489 
738	 16285.158446683 
739	 16309.0715161247 
740	 16333.1894842834 
741	 16353.8799172911 
742	 16375.411524434 
743	 16397.873072792 
744	 16415.4063006287 
745	 16433.5857870042 
746	 16449.7664702249 
747	 16458.9144303149 
748	 16472.2325896551 
749	 16484.0614926936 
750	 16489.3122756344 
751	 16494.6969703626 
752	 16496.3303773233 
753	 16494.4010054179 
754	 16494.7020275457 
755	 16493.5358750191 
756	 16488.4400601824 
757	 16476.9593135675 
758	 16455.8998893705 
759	 16422.4373966959 
760	 16382.3922799627 
761	 16368.5826527827 
762	 16360.2513289577 
763	 16348.0105729985 
764	 16335.4815820649 
765	 16322.9873706964 
766	 16307.4454582749 
767	 16284.7155487661 
768	 16255.2034968473 
769	 16224.2960482195 
770	 16195.3021598437 
771	 16163.9311934263 
772	 16130.9345722799 
773	 16096.3698342398 
774	 16059.600933309 
775	 16022.271383647 
776	 15984.1629666219 
777	 15944.6145626094 
778	 15905.6697315458 
779	 15861.8009841744 
780	 15811.0874857268 
781	 15761.8009882708 
782	 15714.2756606027 
783	 15665.0487802379 
784	 15607.0381841089 
785	 15552.4918490179 
786	 15497.6579951526 
787	 15436.9464475662 
788	 15382.8128594921 
789	 15326.0630556287 
790	 15263.5515968203 
791	 15208.55559029 
792	 15148.5813681072 
793	 15082.2291071485 
794	 15014.6287367975 
795	 14943.05249823 
796	 14872.1654438908 
797	 14806.2232881767 
798	 14741.4465518265 
799	 14674.7715662668 
800	 14605.3913485103 
801	 14535.6482305265 
802	 14466.3510927233 
803	 14398.5021252317 
804	 14332.6040374798 
805	 14264.0158629631 
806	 14193.9221292788 
807	 14122.9683929987 
808	 14045.9451835887 
809	 13971.1770845843 
810	 13899.8155873373 
811	 13825.1606202305 
812	 13753.1604738213 
813	 13680.8304678942 
814	 13603.7872362859 
815	 13529.434671182 
816	 13455.2377747458 
817	 13379.623391577 
818	 13305.5410423219 
819	 13230.4160825673 
820	 13153.3368362328 
821	 13074.3392042181 
822	 12990.5497441681 
823	 12907.0208850898 
824	 12828.6210721223 
825	 12751.2603368259 
826	 12676.2868369646 
827	 12603.6539939641 
828	 12531.4319196273 
829	 12455.7673596845 
830	 12374.1204085395 
831	 12284.7906770165 
832	 12185.7987573631 
833	 12086.6593740773 
834	 11994.4528759375 
835	 11905.8541111678 
836	 11825.8100676812 
837	 11755.6897630028 
838	 11693.9968253514 
839	 11642.5736343904 
840	 11594.8803683416 
841	 11542.8180588797 
842	 11482.4921643946 
843	 11413.6717348715 
844	 11339.4823537114 
845	 11267.8369932614 
846	 11196.496962686 
847	 11123.9099450602 
848	 11048.9217873754 
849	 10975.794135613 
850	 10901.0159680793 
851	 10823.8186417899 
852	 10753.3393484954 
853	 10682.0060993501 
854	 10609.8877316055 
855	 10542.2804981183 
856	 10471.4370789346 
857	 10399.8896683756 
858	 10330.4757141198 
859	 10256.846517308 
860	 10184.5851608022 
861	 10114.963810494 
862	 10043.3300857798 
863	 9973.83024908975 
864	 9904.66541776924 
865	 9833.14805225105 
866	 9765.31041510664 
867	 9697.46453438846 
868	 9627.88571591074 
869	 9560.72709372655 
870	 9491.73487006381 
871	 9422.39111898371 
872	 9356.74782694123 
873	 9291.92124563012 
874	 9224.79976406858 
875	 9154.17062100073 
876	 9083.96461615241 
877	 9013.27434771862 
878	 8943.25389455105 
879	 8876.54154340039 
880	 8809.24407437858 
881	 8742.64641049758 
882	 8678.15440461654 
883	 8612.18292223949 
884	 8550.42181863902 
885	 8491.14578048615 
886	 8423.61870726957 
887	 8356.88190106258 
888	 8291.30811112139 
889	 8225.24914309284 
890	 8160.84904107063 
891	 8096.0683094714 
892	 8030.2378667711 
893	 7965.19267662214 
894	 7900.61860185441 
895	 7835.5567395931 
896	 7769.13888864503 
897	 7703.91165723959 
898	 7638.61389652961 
899	 7572.96283413397 
900	 7509.52175429409 
901	 7446.56849793524 
902	 7383.92490470072 
903	 7321.98088934463 
904	 7259.95475393931 
905	 7197.42576241441 
906	 7134.84298774476 
907	 7074.96877682685 
908	 7013.31973271791 
909	 6949.05714130358 
910	 6883.80049071697 
911	 6821.43635143463 
912	 6759.25728469051 
913	 6695.45370342319 
914	 6633.70552627586 
915	 6573.12881035631 
916	 6512.68581101925 
917	 6451.27794941308 
918	 6390.73756958218 
919	 6329.9481163401 
920	 6268.30276418032 
921	 6208.60354632983 
922	 6146.47450297563 
923	 6082.86720094337 
924	 6022.58440719114 
925	 5964.74437895007 
926	 5907.96019789613 
927	 5850.64093417883 
928	 5791.35298028548 
929	 5730.04528344876 
930	 5666.93945241661 
931	 5602.6908120322 
932	 5541.26801017868 
933	 5478.66512485855 
934	 5412.88828819856 
935	 5352.54341308191 
936	 5294.31809307984 
937	 5236.77976923073 
938	 5179.72053728819 
939	 5122.45501731236 
940	 5064.47907645928 
941	 5006.0072798136 
942	 4949.0683938759 
943	 4891.91803387007 
944	 4834.73132274638 
945	 4778.70307309661 
946	 4721.06097728985 
947	 4665.10882368052 
948	 4612.50975736472 
949	 4558.59051604666 
950	 4505.35709890613 
951	 4452.55524873938 
952	 4399.04498588 
953	 4346.66516715162 
954	 4295.5541027801 
955	 4245.17630484249 
956	 4194.31068758425 
957	 4141.48214145199 
958	 4088.0200850003 
959	 4036.12153176578 
960	 3983.26118153831 
961	 3931.24991472776 
962	 3880.68699462813 
963	 3829.71524040551 
964	 3776.76123745995 
965	 3723.83916537531 
966	 6232.32158515293 
967	 6299.8685765918 
968	 6375.58429470265 
969	 6458.39311158649 
970	 6549.8809439184 
971	 6645.10904199196 
972	 6748.19374992634 
973	 6851.61602466747 
974	 6963.3056848239 
975	 7071.20845348629 
976	 7179.60722170809 
977	 7289.24465617271 
978	 7395.55318509494 
979	 7495.86767259747 
980	 7590.91136422795 
981	 7683.73521470985 
982	 7771.11153794854 
983	 7857.45385636176 
984	 7941.08549459104 
985	 8016.86349536364 
986	 8091.64821263965 
987	 8161.67335687465 
988	 8232.12294411066 
989	 8302.25190718332 
990	 8368.52887181302 
991	 8431.23517654659 
992	 8494.47789336098 
993	 8555.61781878177 
994	 8613.20079558733 
995	 8676.00377100861 
996	 8737.88609869369 
997	 8796.37165366744 
998	 8857.87387412867 
999	 8921.00507254316 
1000	 8981.98798311057 
1001	 9044.14298793348 
1002	 9107.6175072517 
1003	 9169.07393347866 
1004	 9230.09204066499 
1005	 9292.23262604974 
1006	 9356.57629238628 
1007	 9418.14390295523 
1008	 9479.61425509699 
1009	 9538.92399732739 
1010	 9596.42362524525 
1011	 9652.11281039779 
1012	 9709.88193860035 
1013	 9766.75991713454 
1014	 9823.38964309532 
1015	 9877.42404247578 
1016	 9928.32311817157 
1017	 9979.51907792534 
1018	 10027.8493304813 
1019	 10074.7713719176 
1020	 10121.8079264603 
1021	 10173.3865612195 
1022	 10227.8792217087 
1023	 10280.7478025323 
1024	 10334.7273527067 
1025	 10390.7137118331 
1026	 10444.7214812673 
1027	 10498.2848408971 
1028	 10554.7591982599 
1029	 10612.779671395 
1030	 10667.8920930011 
1031	 10721.9114348053 
1032	 10777.6598622832 
1033	 10832.0661164864 
1034	 10887.2037734836 
1035	 10942.5344206003 
1036	 10998.5298440279 
1037	 11053.4123451474 
1038	 11106.61044896 
1039	 11164.0485107539 
1040	 11219.5761906987 
1041	 11274.3724110843 
1042	 11328.0371556924 
1043	 11383.0711569924 
1044	 11432.5703368599 
1045	 11480.3443513071 
1046	 11526.8099566532 
1047	 11571.5997846401 
1048	 11616.8855383352 
1049	 11658.0494018259 
1050	 11700.2089846644 
1051	 11744.3854910035 
1052	 11785.3443951541 
1053	 11829.007901279 
1054	 11872.8038262806 
1055	 11914.0750283684 
1056	 11956.2852819051 
1057	 11996.4297009917 
1058	 12034.6702763573 
1059	 12073.9003071077 
1060	 12112.0942654281 
1061	 12150.1950621133 
1062	 12188.3037941233 
1063	 12227.1582594739 
1064	 12264.713026609 
1065	 12303.6531064406 
1066	 12345.842138353 
1067	 12388.4257206452 
1068	 12431.9050904408 
1069	 12475.6305573044 
1070	 12521.0556840064 
1071	 12566.2088030927 
1072	 12611.4860908899 
1073	 12660.1660156473 
1074	 12708.7495448012 
1075	 12756.0319056507 
1076	 12807.7102133215 
1077	 12864.4009775348 
1078	 12917.2872471282 
1079	 12968.5499484006 
1080	 13024.0181439999 
1081	 13077.0624074407 
1082	 13135.9395808055 
1083	 13201.8430089673 
1084	 13267.5735092602 
1085	 13331.9102640967 
1086	 13398.1200245745 
1087	 13462.1504798256 
1088	 13531.2340049089 
1089	 13606.5236473582 
1090	 13685.1539408344 
1091	 13765.6245332789 
1092	 13850.2901713296 
1093	 13936.869848537 
1094	 14021.7110943435 
1095	 14117.0218218292 
1096	 14218.1579550707 
1097	 14323.6996017709 
1098	 14438.2463044663 
1099	 14553.5199129777 
1100	 14670.4599090547 
1101	 14793.3425998606 
1102	 14920.7338035176 
1103	 15051.12971364 
1104	 15185.4580430492 
1105	 15325.7284033301 
1106	 15464.9074570029 
1107	 15607.5769487262 
1108	 15757.1904261508 
1109	 15909.9655612675 
1110	 16068.7808078233 
1111	 16234.9136976048 
1112	 16403.311156636 
1113	 16576.6063995822 
1114	 16750.9612267343 
1115	 16927.5624120476 
1116	 17109.6614911121 
1117	 17294.8098241548 
1118	 17483.2724768175 
1119	 17675.8748615604 
1120	 17873.6005708777 
1121	 18073.9991632746 
1122	 18279.3058056468 
1123	 18493.8335063819 
1124	 18707.1465879118 
1125	 18922.7838355366 
1126	 19139.0563448136 
1127	 19357.4710247191 
1128	 19577.9406388819 
1129	 19797.9839294932 
1130	 20020.7159770199 
1131	 20240.1222204932 
1132	 20458.7369237946 
1133	 20675.8922240218 
1134	 20892.0605338897 
1135	 21106.2452413122 
1136	 21320.7863330304 
1137	 21530.1362812338 
1138	 21736.716846371 
1139	 21940.0306129251 
1140	 22137.8016259839 
1141	 22335.8941847688 
1142	 22532.8320148512 
1143	 22726.9817677959 
1144	 22919.6146119663 
1145	 23109.9830192505 
1146	 23298.6533004998 
1147	 23483.5043691583 
1148	 23665.4498816807 
1149	 23844.5089627159 
1150	 24022.7079080043 
1151	 24198.8024969383 
1152	 24370.6141212876 
1153	 24542.5489392985 
1154	 24706.5317563409 
1155	 24863.3516166684 
1156	 25018.784542844 
1157	 25171.0363608226 
1158	 25318.2732893063 
1159	 25463.3240183555 
1160	 25601.4262880277 
1161	 25735.606585759 
1162	 25861.4728339743 
1163	 25978.6768231885 
1164	 26093.0125753658 
1165	 26198.8297012374 
1166	 26303.6571253098 
1167	 26406.5823515133 
1168	 26506.4761488803 
1169	 26599.4173177609 
1170	 26689.5399107248 
1171	 26774.11436326 
1172	 26852.2608470396 
1173	 26928.8990308407 
1174	 27002.1503754957 
1175	 27071.7649802081 
1176	 27137.4720432219 
1177	 27201.5354949994 
1178	 27262.7961931979 
1179	 27320.1353331373 
1180	 27374.5684515078 
1181	 27426.265542804 
1182	 27472.2579010854 
1183	 27520.1176037958 
1184	 27567.6780363559 
1185	 27613.0168730405 
1186	 27657.7056309437 
1187	 27700.2434438231 
1188	 27738.6576367791 
1189	 27778.5602905595 
1190	 27818.2110397592 
1191	 27858.4904083946 
1192	 27895.4438164753 
1193	 27932.6780195911 
1194	 27968.5284915799 
1195	 27998.7834977554 
1196	 28028.4364256641 
1197	 28057.1067772258 
1198	 28082.8057936956 
1199	 28105.8218332618 
1200	 28126.54808404 
1201	 28145.3347611747 
1202	 28162.4697734214 
1203	 28178.06488211 
1204	 28188.9217968847 
1205	 28195.3171480166 
1206	 28202.0982784562 
1207	 28204.3837461639 
1208	 28208.4359192551 
1209	 28214.4015599978 
1210	 28218.5210968509 
1211	 28221.7386586833 
1212	 28223.7274894013 
1213	 28223.9502011359 
1214	 28223.4719217076 
1215	 28223.3644209045 
1216	 28221.464439019 
1217	 28218.3693057153 
1218	 28215.4524312832 
1219	 28214.7151919362 
1220	 28214.0573813153 
1221	 28210.9004220618 
1222	 28210.0007602722 
1223	 28204.7673779815 
1224	 28192.0731868535 
1225	 28186.8046302912 
1226	 28182.3002073528 
1227	 28180.4032601456 
1228	 28185.2999212051 
1229	 28184.0749861938 
1230	 28179.8444440107 
1231	 28179.5316308715 
1232	 28178.3692061866 
1233	 28178.0770400408 
1234	 28181.0828936531 
1235	 28183.3604632589 
1236	 28184.7548792593 
1237	 28185.329136247 
1238	 28188.9899360064 
1239	 28194.804768933 
1240	 28202.8192426129 
1241	 28214.0480588444 
1242	 28226.3541843258 
1243	 28240.9048164952 
1244	 28257.5336188046 
1245	 28273.9694000184 
1246	 28289.4567722415 
1247	 28306.0062207944 
1248	 28324.720701037 
1249	 28344.2134380916 
1250	 28367.0300808344 
1251	 28395.4942133609 
1252	 28421.8112047264 
1253	 28448.5338827602 
1254	 28475.8564473614 
1255	 28503.7791913669 
1256	 28532.3298481992 
1257	 28560.9461650691 
1258	 28591.5208159677 
1259	 28625.0840536446 
1260	 28654.553632358 
1261	 28684.168372579 
1262	 28712.3335848163 
1263	 28735.7123491201 
1264	 28760.1533375793 
1265	 28783.2742478975 
1266	 28805.2183722547 
1267	 28826.3459481907 
1268	 28842.8936995934 
1269	 28853.9902307216 
1270	 28859.2516540095 
1271	 28857.2554655275 
1272	 28846.3830665992 
1273	 28831.989487752 
1274	 28814.7515462921 
1275	 28789.066166988 
1276	 28761.1603323923 
1277	 28731.6849964382 
1278	 28694.6653773467 
1279	 28651.2245482797 
1280	 28602.153519168 
1281	 28550.327807249 
1282	 28487.8345196616 
1283	 28430.6937507271 
1284	 28374.4340954737 
1285	 28316.0392628849 
1286	 28257.3944564022 
1287	 28197.2254075863 
1288	 28134.0542421283 
1289	 28072.9962019438 
1290	 28014.9517028112 
1291	 27963.2691647611 
1292	 27915.1586507583 
1293	 27873.0402583607 
1294	 27831.8549898614 
1295	 27791.5912505214 
1296	 27760.5592386095 
1297	 27732.1076444394 
1298	 27710.3614747352 
1299	 27696.4531271668 
1300	 27684.3651460198 
1301	 27679.7481799721 
1302	 27682.6830322648 
1303	 27688.9543266327 
1304	 27700.8475364407 
1305	 27713.7765521652 
1306	 27726.2516085154 
1307	 27743.0273550435 
1308	 27761.8069954892 
1309	 27782.8425147789 
1310	 27808.7758561811 
1311	 27835.1322800485 
1312	 27861.36320215 
1313	 27888.4591941789 
1314	 27917.0060504103 
1315	 27943.8847288351 
1316	 27976.608458545 
1317	 28011.9423256006 
1318	 28051.1224024889 
1319	 28095.211571793 
1320	 28138.80818714 
1321	 28186.3642254385 
1322	 28237.2425245403 
1323	 28292.5194940292 
1324	 28355.6425303041 
1325	 28424.5143432294 
1326	 28502.8318194858 
1327	 28585.6901913026 
1328	 28670.3433258158 
1329	 28763.0762948563 
1330	 28862.597676144 
1331	 28963.3516206913 
1332	 29068.1110667331 
1333	 29178.8481396529 
1334	 29290.5837004091 
1335	 29408.4125298009 
1336	 29532.9825295632 
1337	 29656.7591973965 
1338	 29782.5801327603 
1339	 29912.5791216975 
1340	 30042.8856498615 
1341	 30174.9059380027 
1342	 30303.944665752 
1343	 30426.3777364145 
1344	 30543.8583275514 
1345	 30657.1869355931 
1346	 30766.9765675529 
1347	 30868.7622612772 
1348	 30965.6048911222 
1349	 31053.5500200175 
1350	 31134.3775196432 
1351	 31205.3127702945 
1352	 31264.9111129547 
1353	 31322.313867865 
1354	 31370.1091856504 
1355	 31418.7062114714 
1356	 31473.3146848647 
1357	 31529.663362119 
1358	 31594.7959512368 
1359	 31671.6177528573 
1360	 31753.7825416137 
1361	 31850.9014518617 
1362	 31967.3800490828 
1363	 32097.5357787273 
1364	 32248.2664261695 
1365	 32412.8762900706 
1366	 32592.2271548666 
1367	 32777.7006805759 
1368	 32966.4060202085 
1369	 33151.0940622151 
1370	 33327.883954467 
1371	 33488.3579960949 
1372	 33620.9120913188 
1373	 33729.3459598677 
1374	 33798.8758473306 
1375	 33834.4215330147 
1376	 33836.6762047827 
1377	 33813.8727564787 
1378	 33771.5658894474 
1379	 33717.5512993985 
1380	 33651.1310577956 
1381	 33581.7430089889 
1382	 33519.3602727235 
1383	 33456.9297746559 
1384	 33416.12674052 
1385	 33386.7772787549 
1386	 33365.7347764244 
1387	 33359.8641691056 
1388	 33360.736553301 
1389	 33373.047133201 
1390	 33396.6246293431 
1391	 33428.356162375 
1392	 33478.2595293813 
1393	 33539.5991180838 
1394	 33618.6643111101 
1395	 33716.5634138909 
1396	 33827.4562688657 
1397	 33945.2094976171 
1398	 34070.7162426742 
1399	 34196.6192029321 
1400	 34321.1518636639 
1401	 34448.8631487773 
1402	 34567.6354372738 
1403	 34676.1091840529 
1404	 34776.6544114302 
1405	 34854.8696845502 
1406	 34926.6905370573 
1407	 34993.2296058906 
1408	 35047.2819752768 
1409	 35104.2553833149 
1410	 35156.4928414596 
1411	 35199.4156141942 
1412	 35243.6186468047 
1413	 35280.2912249019 
1414	 35309.3627429979 
1415	 35337.9379960953 
1416	 35358.7869567465 
1417	 35377.1016394672 
1418	 35392.4048971744 
1419	 35396.8520898316 
1420	 35397.8184982593 
1421	 35394.0985037612 
1422	 35381.1882748864 
1423	 35366.8631471071 
1424	 35348.7904004878 
1425	 35322.8755373564 
1426	 35292.3467036345 
1427	 35257.0287350153 
1428	 35218.9105590794 
1429	 35175.5140416242 
1430	 35133.2934811091 
1431	 35091.6871646569 
1432	 35042.3586914258 
1433	 34994.4513322587 
1434	 34947.3232673823 
1435	 34898.2660621159 
1436	 34850.4344945607 
1437	 34802.4426673582 
1438	 34754.5120667421 
1439	 34705.7869660524 
1440	 34661.760091531 
1441	 34623.2251507478 
1442	 34582.9579814689 
1443	 34544.533733953 
1444	 34505.716580095 
1445	 34466.9808458144 
1446	 34426.0811493478 
1447	 34389.0794909202 
1448	 34356.1745735273 
1449	 34320.3254298211 
1450	 34285.5180269988 
1451	 34248.9373369609 
1452	 34211.1492342968 
1453	 34169.6295432356 
1454	 34125.7550487619 
1455	 34078.2281317415 
1456	 34026.429754046 
1457	 33973.6105259278 
1458	 33920.6768917348 
1459	 33865.2659236234 
1460	 33807.1568518152 
1461	 33746.1442798884 
1462	 33686.9507462078 
1463	 33625.6513607714 
1464	 33561.1904864477 
1465	 33499.0595460052 
1466	 33432.3582988149 
1467	 33366.5347838197 
1468	 33305.1884961698 
1469	 33243.0522672084 
1470	 33186.1230710788 
1471	 33132.5074982668 
1472	 33077.9757210441 
1473	 33024.6011929974 
1474	 32971.9722457013 
1475	 32921.6219963064 
1476	 32874.6785392334 
1477	 32831.3966573424 
1478	 32786.65710457 
1479	 32741.4097045102 
1480	 32700.3065966199 
1481	 32656.6591662702 
1482	 32613.7685947437 
1483	 32571.3061298526 
1484	 32525.691046064 
1485	 32483.3837523763 
1486	 32442.9484600491 
1487	 32399.8361064091 
1488	 32355.9537961745 
1489	 32311.8562453203 
1490	 32268.5137833833 
1491	 32227.6302274648 
1492	 32184.4266090302 
1493	 32140.6959892366 
1494	 32099.7687709908 
1495	 32057.7980978079 
1496	 32018.6345839473 
1497	 31982.3160381206 
1498	 31940.5452072147 
1499	 31897.4789369811 
1500	 31855.6546221196 
1501	 31812.3742503481 
1502	 31771.4743134706 
1503	 31732.2716875873 
1504	 31691.5196225829 
1505	 31651.1329372258 
1506	 31611.6620418513 
1507	 31572.2834490461 
1508	 31531.4717007294 
1509	 31490.9610294773 
1510	 31454.5893703192 
1511	 31416.8346748375 
1512	 31378.8906394976 
1513	 31341.3254962249 
1514	 31299.333804175 
1515	 31258.4158029242 
1516	 31216.3565628836 
1517	 31171.7646384496 
1518	 31130.7651079934 
1519	 31086.9586178775 
1520	 31041.1092612626 
1521	 30998.5245734173 
1522	 30953.9683663109 
1523	 30909.9299963034 
1524	 30867.9493637777 
1525	 30828.2162534263 
1526	 30786.5439642228 
1527	 30739.3109847184 
1528	 30694.5888506185 
1529	 30647.7393234315 
1530	 30596.1293339799 
1531	 30547.8661741041 
1532	 30500.1661202784 
1533	 30453.4460290914 
1534	 30411.2333483412 
1535	 30369.3086444274 
1536	 30323.3807259098 
1537	 30270.5502645621 
1538	 30216.6973198306 
1539	 30162.7748186408 
1540	 30110.1503448211 
1541	 30064.1067745882 
1542	 30018.3972123072 
1543	 29970.8909172084 
1544	 29921.6111209014 
1545	 29869.0647837583 
1546	 29812.9102894888 
1547	 29756.6225803915 
1548	 29702.0202384889 
1549	 29646.9608511119 
1550	 29592.4897339413 
1551	 29537.8537242203 
1552	 29482.9892180726 
1553	 29427.6024399518 
1554	 29369.988436582 
1555	 29311.6823347241 
1556	 29254.6485330042 
1557	 29197.3753092055 
1558	 29140.7596021237 
1559	 29085.8338465683 
1560	 29027.0757241017 
1561	 28964.5746759339 
1562	 28902.6647103063 
1563	 28841.5133952435 
1564	 28781.8123507078 
1565	 28722.3182381671 
1566	 28660.2278583833 
1567	 28597.0483192014 
1568	 28533.0843729865 
1569	 28468.4129710888 
1570	 28405.8187209129 
1571	 28340.8726972717 
1572	 28272.580135454 
1573	 28203.0403255249 
1574	 28131.9032520196 
1575	 28063.7498562393 
1576	 27997.8342641315 
1577	 27930.9956821593 
1578	 27863.417874661 
1579	 27796.1847242579 
1580	 27728.8627786302 
1581	 27658.992149706 
1582	 27587.9583313314 
1583	 27517.9794393303 
1584	 27449.4081704467 
1585	 27381.0753506853 
1586	 27313.9690853998 
1587	 27246.0829980849 
1588	 27172.8192203602 
1589	 27100.4084434724 
1590	 27030.4218846018 
1591	 26958.2742304989 
1592	 26887.7713631732 
1593	 26815.7624690138 
1594	 26740.5671051357 
1595	 26667.966538244 
1596	 26593.8031662146 
1597	 26518.9194618417 
1598	 26448.3290202632 
1599	 26374.9339852709 
1600	 26300.5413839899 
1601	 26228.8615291698 
1602	 26151.9476015562 
1603	 26073.7438414234 
1604	 25997.2031639091 
1605	 25917.9432924505 
1606	 25841.9254040234 
1607	 25767.3217422032 
1608	 25691.0549541555 
1609	 25613.9143817534 
1610	 25530.0224700008 
1611	 25447.3264705772 
1612	 25364.7765534968 
1613	 25277.7625036435 
1614	 25196.8298420015 
1615	 25114.6787646312 
1616	 25028.1371161353 
1617	 24945.4133792238 
1618	 24861.7853814442 
1619	 24774.0334575719 
1620	 24682.8991507324 
1621	 24589.2375844791 
1622	 24495.9318576183 
1623	 24401.0004657391 
1624	 24308.654286509 
1625	 24218.0362503989 
1626	 24123.3941285196 
1627	 24028.0796395934 
1628	 23930.1594886669 
1629	 23834.8134325148 
1630	 23741.2219159866 
1631	 23646.1213247045 
1632	 23554.7082300135 
1633	 23462.7379519819 
1634	 23369.9720909773 
1635	 23282.0080479115 
1636	 23199.3094825365 
1637	 23115.442399305 
1638	 23033.7904819539 
1639	 22951.5047383054 
1640	 22869.9005834197 
1641	 22785.4832931259 
1642	 22702.5241227631 
1643	 22615.6552681351 
1644	 22523.7715925271 
1645	 22432.2300828687 
1646	 22338.9165554164 
1647	 22244.7796803912 
1648	 22150.4902473883 
1649	 22053.9464233467 
1650	 21956.6276935648 
1651	 21855.571927701 
1652	 21753.3930712639 
1653	 21646.4678253188 
1654	 21536.9963898204 
1655	 21421.5260895412 
1656	 21302.6485056337 
1657	 21175.1509701558 
1658	 21043.4944760132 
1659	 20901.0571277267 
1660	 20749.6968879156 
1661	 20589.9398355775 
1662	 20420.4519657052 
1663	 20244.3795456547 
1664	 20056.1313503853 
1665	 19872.3401191683 
1666	 19680.3922913509 
1667	 19498.5066111027 
1668	 19318.7307271372 
1669	 19146.2757027316 
1670	 18977.2624397579 
1671	 18819.0512688484 
1672	 18666.6022409562 
1673	 18527.2524402419 
1674	 18398.224731397 
1675	 18279.3214834731 
1676	 18171.5731235191 
1677	 18072.5201975709 
1678	 17983.4620068282 
1679	 17902.0444109665 
1680	 17830.6132378767 
1681	 17764.1578189682 
1682	 17706.228648633 
1683	 17652.8779854677 
1684	 17601.0296275557 
1685	 17553.7610810686 
1686	 17511.0626797344 
1687	 17474.481825844 
1688	 17437.2524198029 
1689	 17400.8564409959 
1690	 17367.7087748704 
1691	 17338.1422065215 
1692	 17306.586675299 
1693	 17278.2879652858 
1694	 17247.1820105775 
1695	 17210.9521940325 
1696	 17177.8081277989 
1697	 17146.3566674507 
1698	 17113.9466285192 
1699	 17081.5049761209 
1700	 17050.1266756172 
1701	 17018.9819689236 
1702	 16987.4258670212 
1703	 16956.1402834607 
1704	 16926.1267956718 
1705	 16895.4508960997 
1706	 16866.4006639944 
1707	 16840.2119002676 
1708	 16812.6108326924 
1709	 16784.4985766523 
1710	 16757.0837956066 
1711	 16731.0825603968 
1712	 16702.4671253497 
1713	 16674.1758121051 
1714	 16642.361686313 
1715	 16606.0506296744 
1716	 16572.9344406972 
1717	 16538.840726769 
1718	 16506.433979791 
1719	 16475.3655040692 
1720	 16446.1500826107 
1721	 16418.3522024294 
1722	 16389.8478482498 
1723	 16362.7941586261 
1724	 16335.6794774716 
1725	 16307.4393020856 
1726	 16281.3390011738 
1727	 16256.8617373775 
1728	 16231.3591885269 
1729	 16204.5556737627 
1730	 16179.9658114621 
1731	 16154.4868211233 
1732	 16128.7134348006 
1733	 16105.0991253134 
1734	 16081.1343410585 
1735	 16060.5067053582 
1736	 16045.1539989248 
1737	 16026.3635720093 
1738	 16008.7541513395 
1739	 15988.6492575731 
1740	 15962.8467559304 
1741	 15943.0455084629 
1742	 15925.3145439845 
1743	 15908.0537465366 
1744	 15894.4176220432 
1745	 15879.6391626476 
1746	 15862.2022710154 
1747	 15850.2020367449 
1748	 15844.3867892819 
1749	 15831.4715407505 
1750	 15818.4926697247 
1751	 15804.3141367189 
1752	 15782.845968295 
1753	 15769.5917124806 
1754	 15761.3501697388 
1755	 15749.691820424 
1756	 9294.32919852067 
1757	 9407.80177930954 
1758	 9511.61531530369 
1759	 9625.1777862333 
1760	 9736.36820118284 
1761	 9855.40286149232 
1762	 9985.36698509908 
1763	 10118.719783931 
1764	 10250.0809851549 
1765	 10396.3905790287 
1766	 10518.7243454108 
1767	 10620.0492814809 
1768	 10738.0408768749 
1769	 10854.3927858056 
1770	 10964.8544087229 
1771	 11094.1711369972 
1772	 11218.0541460309 
1773	 11341.4209905478 
1774	 11459.6116470391 
1775	 11588.055709109 
1776	 11723.0190968616 
1777	 11855.9885275475 
1778	 11994.7162238351 
1779	 12127.3075044941 
1780	 12254.5622454274 
1781	 12384.2818359275 
1782	 12504.2034448652 
1783	 12619.642450176 
1784	 12744.6869739781 
1785	 12872.1696327358 
1786	 12995.5711679555 
1787	 13123.1290407913 
1788	 13255.2695975548 
1789	 13373.916345729 
1790	 13484.5194421766 
1791	 13616.7072810118 
1792	 13744.1667553398 
1793	 13843.3093471476 
1794	 13962.685885906 
1795	 14097.1705928043 
1796	 14220.4972653557 
1797	 14328.5457990222 
1798	 14469.6115759468 
1799	 14604.77905324 
1800	 14724.712189532 
1801	 14850.0696236905 
1802	 14973.4528784533 
1803	 15082.3250497021 
1804	 15178.2965239063 
1805	 15265.7521587623 
1806	 15347.4877260543 
1807	 15414.3769443606 
1808	 15461.9297912258 
1809	 15519.6787531944 
1810	 15575.8660677722 
1811	 15613.9987726391 
1812	 15664.1802250823 
1813	 15719.9942225491 
1814	 15770.7134242531 
1815	 15821.0017885779 
1816	 15873.6649069184 
1817	 15933.072359216 
1818	 15976.2497850123 
1819	 16021.9713750327 
1820	 16066.8317139331 
1821	 16103.4519948001 
1822	 16129.2095563437 
1823	 16160.0533137058 
1824	 16191.6835103626 
1825	 16216.1779868409 
1826	 16234.0936352992 
1827	 16255.0805732986 
1828	 16269.4125476842 
1829	 16292.0468332792 
1830	 16306.448568556 
1831	 16316.5470830698 
1832	 16338.1184159271 
1833	 16352.073466005 
1834	 16383.2745025065 
1835	 16434.0007433649 
1836	 16481.2510801936 
1837	 16531.755763158 
1838	 16587.244250839 
1839	 16657.9883277822 
1840	 16709.9061464421 
1841	 16771.9541769227 
1842	 16835.6252495061 
1843	 16904.4054604373 
1844	 16982.2362430702 
1845	 17050.5510903104 
1846	 17126.590190443 
1847	 17189.6718402829 
1848	 17239.1150687989 
1849	 17281.5908402091 
1850	 17338.9751138802 
1851	 17397.0479964576 
1852	 17456.9598806475 
1853	 17534.797288111 
1854	 17588.4160101436 
1855	 17636.6168492873 
1856	 17670.5069312925 
1857	 17690.0542937377 
1858	 17706.3230535173 
1859	 17715.0388785279 
1860	 17702.0132883608 
1861	 17660.1444234845 
1862	 17609.9301985543 
1863	 17569.8497447553 
1864	 17501.5419388585 
1865	 17474.8545319052 
1866	 17461.7766067529 
1867	 17473.5327694458 
1868	 17501.8715479325 
1869	 17560.3922145177 
1870	 17639.3022913597 
1871	 17740.9384541916 
1872	 17850.420374477 
1873	 17962.6379593331 
1874	 18082.5452499549 
1875	 18209.6286311803 
1876	 18317.5668409606 
1877	 18423.4778166782 
1878	 18511.3806170197 
1879	 18578.3989819624 
1880	 18615.8354298122 
1881	 18640.0837292683 
1882	 18652.0908454298 
1883	 18650.4105351779 
1884	 18644.7269484269 
1885	 18628.2804076359 
1886	 18594.7482995039 
1887	 18556.3851729861 
1888	 18509.5022489271 
1889	 18451.0901456107 
1890	 18390.2531583621 
1891	 18337.8879675477 
1892	 18288.2027689711 
1893	 18229.7419174472 
1894	 18164.9324633405 
1895	 18098.7425562986 
1896	 18035.0456134102 
1897	 17979.6345693982 
1898	 17922.6203240856 
1899	 17884.5439388914 
1900	 17859.7484978654 
1901	 17840.8968217647 
1902	 17826.3227011896 
1903	 17838.82570035 
1904	 17855.8751753221 
1905	 17858.9308010722 
1906	 17871.5924819048 
1907	 17888.0281990213 
1908	 17901.5693136409 
1909	 17911.7977089954 
1910	 17926.1708404523 
1911	 17952.4799514378 
1912	 17960.1774427646 
1913	 17957.0310141356 
1914	 17953.3464178773 
1915	 17948.3848617752 
1916	 17942.4283508791 
1917	 17954.4009359603 
1918	 17976.2171033519 
1919	 17999.9844751805 
1920	 18035.2090299282 
1921	 18062.8314164917 
1922	 18086.998784711 
1923	 18120.3894689882 
1924	 18157.9454663997 
1925	 18192.743682576 
1926	 18237.0390058006 
1927	 18278.0200419149 
1928	 18300.6994059621 
1929	 18315.3132187734 
1930	 18327.7516876803 
1931	 18325.6858937722 
1932	 18334.0139991045 
1933	 18346.1900768384 
1934	 18353.8784145954 
1935	 18362.8378943355 
1936	 18368.9235279888 
1937	 18370.4176944509 
1938	 18372.2414286517 
1939	 18373.8453682816 
1940	 18375.7282161411 
1941	 18371.6540612784 
1942	 18362.1649855436 
1943	 18357.563467271 
1944	 18352.2464907384 
1945	 18345.184058402 
1946	 18351.6510306125 
1947	 18333.3901661711 
1948	 18297.4114971254 
1949	 18264.400306126 
1950	 18211.8451485255 
1951	 18171.2957943628 
1952	 18131.8835691205 
1953	 18103.4331811697 
1954	 18076.0307446827 
1955	 18056.0193610465 
1956	 18030.5432749327 
1957	 18012.6592485237 
1958	 17982.057187344 
1959	 17941.2768695306 
1960	 17904.9656070451 
1961	 17865.2186176687 
1962	 17825.3079594282 
1963	 17792.808992898 
1964	 17749.2928815243 
1965	 17698.0989815553 
1966	 17645.0592376265 
1967	 17587.4295507262 
1968	 17522.5746251425 
1969	 17458.287536092 
1970	 17393.7359969426 
1971	 17322.5106409693 
1972	 17244.2919835878 
1973	 17168.9596011274 
1974	 17086.5281511862 
1975	 17011.3911897154 
1976	 16945.9429328721 
1977	 16871.4642862613 
1978	 16797.4749251925 
1979	 16720.4066538598 
1980	 16634.8153490032 
1981	 16537.4391718266 
1982	 16449.4362603368 
1983	 16362.342958984 
1984	 16268.5951771913 
1985	 16174.2545593927 
1986	 16079.909988549 
1987	 15972.0580588947 
1988	 15879.5994429283 
1989	 15802.8884641845 
1990	 15715.2545878196 
1991	 15625.7918370502 
1992	 15543.4102097614 
1993	 15442.9827681071 
1994	 15348.3508538387 
1995	 15254.4279420031 
1996	 15156.282038162 
1997	 15068.7062418211 
1998	 14992.3547742105 
1999	 14904.5539432342 
2000	 14824.4701658015 
2001	 14728.7162886131 
2002	 14612.4063060714 
2003	 14509.1511868338 
2004	 14400.2473053377 
2005	 14299.9280993761 
2006	 14215.4244534836 
2007	 14130.5698265401 
2008	 14049.8029190995 
2009	 13973.4454684724 
2010	 13883.5944128276 
2011	 13788.1173125715 
2012	 13687.3859460262 
2013	 13571.9550850399 
2014	 13467.5450544374 
2015	 13359.9760229001 
2016	 13264.2540795367 
2017	 13180.4670784061 
2018	 13091.4809719141 
2019	 13007.7199789601 
2020	 12919.3289458699 
2021	 12833.5642414873 
2022	 12741.6149145727 
2023	 12652.9512122186 
2024	 12575.1867246411 
2025	 12495.3793276887 
2026	 12418.2308499121 
2027	 12342.4406518856 
2028	 12267.8647890506 
2029	 12193.5400069802 
2030	 12120.0101998392 
2031	 12045.5886203239 
2032	 11968.4339977195 
2033	 11902.3667311293 
2034	 11830.6716378553 
2035	 11756.2033249495 
2036	 11690.6066371865 
2037	 11622.8462625992 
2038	 11559.984693702 
2039	 11498.6467745494 
2040	 11444.5487371064 
2041	 11389.1235503745 
2042	 11329.4828822294 
2043	 11268.5792151814 
2044	 11212.7972680418 
2045	 11151.9885592884 
2046	 11098.3462590733 
2047	 11055.2621650836 
2048	 11005.7889917461 
2049	 10955.3394988552 
2050	 10905.5349758268 
2051	 10853.4526477043 
2052	 10794.5232064371 
2053	 10742.2187609727 
2054	 10688.1683433687 
2055	 10636.6251663909 
2056	 10593.9310091006 
2057	 10547.3558570512 
2058	 10505.2112174108 
2059	 10462.7443708576 
2060	 10420.4987923743 
2061	 10379.0152610024 
2062	 10341.6140604702 
2063	 10301.2309136485 
2064	 10264.3270732953 
2065	 10212.5629140158 
2066	 10166.4129789138 
2067	 10106.464720172 
2068	 10044.9255132257 
2069	 9997.92069255577 
2070	 9944.23051356517 
2071	 9900.97322974739 
2072	 9849.54695319945 
2073	 9798.09464571973 
2074	 9757.30966634126 
2075	 9705.94548600334 
2076	 9655.70798505233 
2077	 9607.94528189404 
2078	 9555.92113642122 
2079	 9496.32415398375 
2080	 9445.95048610763 
2081	 9397.50403632798 
2082	 9351.99784618068 
2083	 9314.28620430943 
2084	 9277.53815450551 
2085	 9237.10674429075 
2086	 9192.72957475796 
2087	 9138.43141614648 
2088	 9077.28062352089 
2089	 9020.57319524674 
2090	 8968.25574804258 
2091	 8912.2792537682 
2092	 8857.43142378971 
2093	 8813.41803581749 
2094	 8766.02546325564 
2095	 8718.70906292063 
2096	 8685.29760205545 
2097	 8637.23601660779 
2098	 8578.1085506766 
2099	 8519.47230613065 
2100	 8463.11163925694 
2101	 8403.40108772209 
2102	 8350.24088969776 
2103	 8289.83893824572 
2104	 8221.94415172517 
2105	 8161.90785948402 
2106	 8096.93747806453 
2107	 8035.5798754286 
2108	 7983.40479703808 
2109	 7921.3695951482 
2110	 7859.33225208646 
2111	 7794.40448446613 
2112	 7720.10404121806 
2113	 7650.5801091847 
2114	 7586.80888707084 
2115	 7523.10058261478 
2116	 7466.79681458051 
2117	 7423.3394150545 
2118	 7370.62340255026 
2119	 7318.91524257602 
2120	 7263.4921458642 
2121	 7196.47435056782 
2122	 7131.57815606837 
2123	 7059.5456125574 
2124	 6992.86750658009 
2125	 6948.66308766786 
2126	 6912.29147842366 
2127	 6880.93377644154 
2128	 6852.54116476128 
2129	 6814.32089143996 
2130	 6767.22762832342 
2131	 6730.78175915299 
2132	 6697.3208690134 
2133	 6670.40895633287 
2134	 6648.95628163089 
2135	 6617.75645807427 
2136	 6585.05294227593 
2137	 6549.52205835175 
2138	 6499.29968900392 
2139	 6461.86024972693 
2140	 6430.48037491186 
2141	 6393.72914068083 
2142	 6367.63548709953 
2143	 6352.97238860114 
2144	 6343.40273847085 
2145	 6342.11579366685 
2146	 6343.33371022373 
2147	 6343.3766109416 
2148	 6340.26470168639 
2149	 6341.72526259849 
2150	 6356.90450144159 
2151	 6375.30403097522 
2152	 6404.19583854024 
2153	 6444.27145249249 
2154	 6477.0434113526 
2155	 6509.95155920492 
2156	 6545.91512118095 
2157	 6576.1888198895 
2158	 6614.36507909475 
2159	 6664.12789659498 
2160	 6704.68791014447 
2161	 6743.89355648151 
2162	 6783.24706989159 
2163	 6820.20594426749 
2164	 6852.45807844079 
2165	 6881.65496954779 
2166	 6918.42278907164 
2167	 6943.61493591924 
2168	 6954.29365045082 
2169	 6974.44695988491 
2170	 6977.19474053727 
2171	 6987.78940269679 
2172	 7013.15896774319 
2173	 7026.59615874704 
2174	 7056.29175180343 
2175	 7079.24076755759 
2176	 7096.14663345134 
2177	 7138.66445226193 
2178	 7177.03119336283 
2179	 7204.6755288266 
2180	 7233.87428317101 
2181	 7250.41049792907 
2182	 7265.39175891672 
2183	 7285.62027609638 
2184	 7318.40129043983 
2185	 7337.2536079086 
2186	 7358.151000115 
2187	 7361.72867125894 
2188	 7353.15823127864 
2189	 7338.28965007856 
2190	 7316.08978953557 
2191	 7279.95767359352 
2192	 7250.54369949528 
2193	 7217.49265431276 
2194	 7180.38689532965 
2195	 7147.8456663138 
2196	 7105.63725417907 
2197	 7070.84525870637 
2198	 7038.72573717968 
2199	 7020.89477917483 
2200	 7021.72256424196 
2201	 7025.14304092857 
2202	 7037.03109165431 
2203	 7035.61961962474 
2204	 7027.17482231111 
2205	 7026.13436832805 
2206	 7023.72591178026 
2207	 7025.387318322 
2208	 7019.40034738601 
2209	 7004.72780070408 
2210	 6991.64216289523 
2211	 6967.75164155722 
2212	 6952.64427729697 
2213	 6947.1573681842 
2214	 6932.98227619667 
2215	 6921.04149100483 
2216	 6899.49146844187 
2217	 6870.80181949921 
2218	 6837.91540861279 
2219	 6798.64454504426 
2220	 6753.67053571695 
2221	 6706.0824754753 
2222	 6665.56232943667 
2223	 6622.00766579792 
2224	 6578.84213131961 
2225	 6539.39229090292 
2226	 6502.73073004435 
2227	 6469.30639718048 
2228	 6436.00953465029 
2229	 6408.34160124839 
2230	 6368.10891477659 
2231	 6324.68820588103 
2232	 6280.55126714639 
2233	 6233.68808595882 
2234	 6189.81522074845 
2235	 6149.65853281655 
2236	 6112.88367681247 
2237	 6063.8285175489 
2238	 6018.39517116915 
2239	 5966.79348693587 
2240	 5913.75148025417 
2241	 5879.7078497112 
2242	 5840.9882357516 
2243	 5803.67515755094 
2244	 5775.81617079395 
2245	 5737.79917174595 
2246	 5690.64506703408 
2247	 5651.55146337193 
2248	 5609.62441037584 
2249	 5574.95365310622 
2250	 5550.65571070737 
2251	 5519.62809874754 
2252	 5490.01006690534 
2253	 5458.24825637948 
2254	 5414.32452115399 
2255	 5382.93633772082 
2256	 5359.92419620491 
2257	 5334.81209250187 
2258	 5308.23479873685 
2259	 5297.86514991433 
2260	 5277.54337328042 
2261	 5258.54113798414 
2262	 5243.37645787134 
2263	 5210.53969222053 
2264	 5171.90893277803 
2265	 5123.41767618825 
2266	 5071.50086262398 
2267	 5038.46289031045 
2268	 5005.04062095536 
2269	 4971.44795523232 
2270	 4942.87859595038 
2271	 4901.70508431444 
2272	 4869.54525257518 
2273	 4850.59619560892 
2274	 4831.04965202372 
2275	 4806.92799427608 
2276	 4769.77330065317 
2277	 4718.72881297372 
2278	 4671.82898668923 
2279	 4632.0356925101 
2280	 4591.22899217449 
2281	 4563.04465594721 
2282	 4524.50094979108 
2283	 4480.98858882043 
2284	 4445.39168254945 
2285	 4399.73600536108 
2286	 4365.49215604439 
2287	 4338.96717234645 
2288	 4314.68292873165 
2289	 4300.06403292904 
2290	 4276.23884966222 
2291	 4250.52677645108 
2292	 4223.00468396725 
2293	 4190.3983293032 
2294	 4159.27624962346 
2295	 4130.6188004842 
2296	 4096.46509881513 
2297	 4056.47766281442 
2298	 4022.06841941563 
2299	 3982.2995435587 
2300	 3956.16250661813 
2301	 3940.19953442399 
2302	 3920.70116695875 
2303	 3912.72117277553 
2304	 3892.93855165666 
2305	 3866.86263633558 
2306	 3838.60151854456 
2307	 3799.39592779146 
2308	 3771.98371958744 
2309	 3747.48232885736 
2310	 3725.6635362645 
2311	 3708.79489223636 
2312	 3685.54502235442 
2313	 3655.62255127068 
2314	 3625.29702689599 
2315	 3593.95795234522 
2316	 3559.53216484254 
2317	 3528.80823993548 
2318	 3498.71829185132 
2319	 3469.25236129026 
2320	 3448.74862735625 
2321	 3430.17850197518 
2322	 3407.99085752127 
2323	 3380.41973373818 
2324	 3351.48659102927 
2325	 3318.7711821645 
2326	 3278.91189061399 
2327	 3245.19175397856 
2328	 3213.82079654074 
2329	 3174.96650272273 
2330	 3136.08360333275 
2331	 3100.47623856817 
2332	 3062.07353718667 
2333	 3028.29094056616 
2334	 3002.33547307141 
2335	 2972.61694527766 
2336	 2945.08831681059 
2337	 2915.28008311577 
2338	 2882.50266899435 
2339	 2854.55994423528 
2340	 2829.14606513076 
2341	 2807.06287683738 
2342	 2783.94131640273 
2343	 2769.20894956455 
2344	 2749.02885377849 
2345	 2718.76203423249 
2346	 2695.03660288196 
2347	 2657.46442162314 
2348	 2620.67035536166 
2349	 2602.95980990486 
2350	 2583.19311284114 
2351	 2570.67711874605 
2352	 2556.26311048129 
2353	 2523.94613526081 
2354	 2494.68849707708 
2355	 2470.09176181741 
2356	 2449.31778230701 
2357	 2437.88062720789 
2358	 2429.1768045065 
2359	 2404.22962647658 
2360	 2377.75342796634 
2361	 2361.07448679044 
2362	 2330.61170204804 
2363	 2313.02896494729 
2364	 2302.22896575867 
2365	 2281.32641209521 
2366	 2263.66184654903 
2367	 2239.93264142783 
2368	 2211.9689090057 
2369	 2176.79691442838 
2370	 2153.32646972333 
2371	 2128.47014731886 
2372	 2093.63652641306 
2373	 2068.64462902395 
2374	 2032.47324142766 
2375	 1995.72328892421 
2376	 1972.40074210069 
2377	 1959.9750713383 
2378	 1945.47405210245 
2379	 1934.86771705133 
2380	 1929.79272007157 
2381	 1909.65276419821 
2382	 1896.62291400675 
2383	 1880.90918271459 
2384	 1858.78086546703 
2385	 1842.72852740264 
2386	 1819.17919941628 
2387	 1800.06465583468 
2388	 1784.47634848308 
2389	 1764.38572124422 
2390	 1741.20186624081 
2391	 1715.98992255101 
2392	 1692.09256793149 
2393	 1674.30863869058 
2394	 1661.59907921283 
2395	 1652.54604388205 
2396	 1645.35728697658 
2397	 1631.3766062357 
2398	 1616.78864663257 
2399	 1598.44455092211 
2400	 1576.85268487448 
2401	 1562.17195055971 
2402	 1545.23291736631 
2403	 1534.41036309156 
2404	 1531.6851049373 
2405	 1523.34884182664 
2406	 1511.80637849475 
2407	 1488.83973322084 
2408	 1455.94389613442 
2409	 1426.25778865051 
2410	 1408.53488836177 
2411	 1400.70425537219 
2412	 1391.61862532882 
2413	 1381.10302211529 
2414	 1370.07142674619 
2415	 1357.4181218575 
2416	 1353.81206462926 
2417	 1354.76579009982 
2418	 1342.26034847013 
2419	 1323.48294481838 
2420	 1298.64246852026 
2421	 1273.85447691241 
2422	 1257.27549763308 
2423	 1249.35077205764 
2424	 1249.52828827119 
2425	 1248.5889356937 
2426	 1248.0662009127 
2427	 1239.1269304826 
2428	 1227.42066885257 
2429	 1212.71452353293 
2430	 1187.44619545995 
2431	 1164.61159124492 
2432	 1143.86805528121 
2433	 1125.23712739331 
2434	 1109.74244035323 
2435	 1096.20891341666 
2436	 1082.07961738302 
2437	 1071.63743603807 
2438	 1067.67789740961 
2439	 1058.90624864432 
2440	 1042.88940978933 
2441	 1021.7095099166 
2442	 993.440478175231 
2443	 980.383746367091 
2444	 986.05177992594 
2445	 982.151921315929 
2446	 982.137132820763 
2447	 973.692277004407 
2448	 949.610432500155 
2449	 937.683265660448 
2450	 930.159193247525 
2451	 928.608230515001 
2452	 923.059824200814 
2453	 919.57919509628 
2454	 909.062846174475 
2455	 884.725755579278 
2456	 874.931215285245 
2457	 854.812829463862 
2458	 840.847968963915 
2459	 839.984427279161 
2460	 824.912605211624 
2461	 814.514026183978 
2462	 801.402070901578 
2463	 780.515107605098 
2464	 771.993449039936 
2465	 768.287968203254 
2466	 766.645185385161 
2467	 766.97918375593 
2468	 770.9318613129 
2469	 769.279511985038 
2470	 758.29691796277 
2471	 758.163899166516 
2472	 752.93554876023 
2473	 745.367039473354 
2474	 740.268979658422 
2475	 737.423388457031 
2476	 737.594421629803 
2477	 729.399122335627 
2478	 721.900146415527 
2479	 717.22427427763 
2480	 703.658629201807 
2481	 695.205254722223 
2482	 683.5416463166 
2483	 660.431068339779 
2484	 637.379982028759 
2485	 610.462460580581 
2486	 588.017129892137 
2487	 576.039082742872 
2488	 567.666959179745 
2489	 568.862038279368 
2490	 584.179500668427 
2491	 589.586474959265 
2492	 582.398118434769 
2493	 569.479454480702 
2494	 548.729407292627 
2495	 533.880893325082 
2496	 526.761164397281 
2497	 524.284714638411 
2498	 520.053231234832 
2499	 512.514188572468 
2500	 498.918902764313 
